Start Recording
20,133,126,128,126,124,129,125,125,0
24,128,126,127,129,128,128,127,127,0
28,124,129,128,128,130,128,125,126,0
32,131,127,128,126,123,128,128,126,0
35,127,128,128,126,124,128,123,125,0
39,124,126,128,129,136,128,126,127,0
42,133,129,130,126,126,128,127,129,0
45,124,128,128,128,130,128,126,128,0
49,127,127,127,127,128,128,128,130,0
52,121,126,125,129,139,126,130,130,0
56,126,127,126,129,137,127,128,127,0
59,132,130,127,126,118,127,129,127,0
62,131,129,128,127,125,128,124,126,0
66,131,127,127,128,123,128,128,126,0
69,128,128,127,128,126,127,129,128,0
72,127,128,129,128,130,127,127,128,0
86,126,127,128,128,126,128,127,128,0
90,116,125,125,130,137,127,130,131,0
94,122,127,126,128,121,128,127,127,0
97,134,129,128,128,122,128,127,126,0
101,129,128,129,128,124,128,124,125,0
104,124,126,128,126,124,129,124,127,0
108,131,128,129,128,123,128,127,127,0
111,133,129,128,127,128,127,128,129,0
114,122,124,128,127,127,128,123,127,0
118,121,126,128,128,129,128,127,127,0
121,130,130,127,126,125,128,129,128,0
129,126,127,129,128,124,128,127,131,0
135,123,127,122,129,138,125,128,130,0
138,123,126,124,128,133,126,131,129,0
142,128,128,129,125,126,128,130,125,0
146,132,129,129,126,122,128,129,125,0
149,134,127,127,127,121,127,129,127,0
152,134,128,128,127,118,128,129,126,0
156,130,128,129,126,122,127,129,127,0
159,133,127,128,128,130,128,126,127,0
163,122,127,126,129,137,127,125,128,0
166,134,127,127,128,123,127,130,128,0
170,126,128,128,126,127,128,128,129,0
173,127,128,129,128,124,127,128,126,0
177,134,128,129,128,127,129,124,129,0
180,116,127,125,129,139,126,126,131,0
184,121,127,125,129,136,128,130,127,0
187,129,129,129,127,126,128,127,127,0
191,133,128,129,128,128,128,126,127,0
194,125,127,127,128,127,130,132,128,0
198,130,128,128,127,130,128,125,127,0
201,130,130,129,128,125,128,129,127,0
207,120,126,129,126,124,129,126,126,0
210,126,127,125,129,138,127,130,128,0
214,126,128,128,126,126,128,132,127,0
218,128,128,127,128,127,127,130,127,0
221,129,128,129,128,128,128,124,126,0
225,126,126,129,129,126,129,124,127,0
227,125,127,129,129,138,126,126,128,0
230,128,128,129,127,129,127,129,127,0
244,130,127,128,128,126,128,125,126,0
248,123,126,126,128,127,128,125,128,0
253,120,127,126,128,137,127,131,131,0
258,126,129,126,126,121,128,129,128,0
261,132,129,127,128,121,128,127,126,0
264,132,127,128,128,130,127,128,129,0
268,125,125,124,129,135,127,128,126,0
271,130,129,129,125,122,129,131,128,0
273,128,129,129,127,127,128,131,128,0
277,131,126,127,126,123,128,131,127,0
280,133,125,130,126,121,127,126,126,0
283,129,128,128,127,130,127,127,128,0
286,130,130,129,127,128,128,128,128,0
289,128,127,128,128,124,128,126,126,0
291,123,127,125,129,135,126,131,130,0
295,125,128,128,128,122,128,126,126,0
314,130,129,127,128,125,128,127,126,0
320,130,127,128,125,121,127,127,125,0
325,127,127,127,126,124,128,128,127,0
330,128,128,128,127,127,128,125,128,0
334,132,129,128,127,127,128,132,129,0
337,120,127,126,128,135,128,127,128,0
341,126,127,128,128,127,128,125,126,0
345,130,128,127,126,125,127,132,128,0
348,129,128,127,128,126,128,128,127,0
352,120,127,128,126,128,127,126,127,0
355,125,127,128,126,131,128,124,128,0
359,128,128,127,127,126,128,125,130,0
362,129,129,127,126,128,128,130,130,0
365,123,126,125,129,139,127,128,132,0
368,127,126,123,129,135,126,127,131,0
371,125,127,127,127,119,128,129,128,0
377,130,130,129,127,121,128,127,127,0
381,135,127,129,125,125,128,126,126,0
383,134,126,127,126,120,128,128,127,0
386,133,129,127,127,124,128,125,126,0
389,130,128,127,128,125,128,131,127,0
394,129,127,129,128,127,128,127,128,0
398,129,128,128,128,125,128,124,128,0
401,127,128,129,127,122,127,126,126,0
404,128,129,127,127,128,128,124,126,0
407,127,128,128,127,139,126,126,131,0
410,127,126,123,129,136,125,129,130,0
413,122,127,128,128,120,128,128,126,0
415,131,128,128,128,127,128,124,125,0
430,127,127,129,128,128,127,129,128,0
435,134,127,129,128,128,128,128,127,0
439,127,128,128,127,131,127,129,130,0
442,127,129,128,127,122,128,128,126,0
447,131,129,130,129,130,128,126,127,0
450,133,127,129,127,130,128,124,128,0
455,120,127,128,128,123,127,130,128,0
458,128,129,129,128,130,127,129,128,0
460,117,127,125,129,140,126,130,130,0
463,118,126,124,129,137,126,130,130,0
469,127,126,125,128,135,128,128,126,0
472,129,129,128,128,120,127,130,127,0
476,130,129,129,128,123,128,128,127,0
479,132,126,128,126,119,128,126,125,0
482,129,127,128,126,126,128,131,128,0
485,129,128,129,128,126,128,126,128,0
489,132,126,129,128,127,128,125,128,0
494,119,126,129,129,132,128,128,127,0
498,129,126,128,126,125,127,127,128,0
503,125,130,127,126,125,127,129,128,0
507,134,128,127,128,123,128,127,131,0
510,124,126,122,129,136,126,128,130,0
514,123,127,126,126,122,129,128,126,0
518,130,129,127,125,122,127,128,126,0
522,133,128,129,128,122,128,128,126,0
525,124,126,127,129,134,128,129,127,0
528,126,129,128,128,129,128,129,128,0
540,130,130,130,127,126,128,125,127,0
543,130,129,127,128,125,128,128,129,0
551,118,127,128,128,126,129,126,126,0
554,131,126,127,130,137,127,125,130,0
559,126,128,126,129,132,128,126,125,0
562,123,128,128,126,119,129,127,126,0
565,131,128,128,128,121,128,128,127,0
568,129,127,128,126,123,128,131,128,0
571,128,129,129,128,123,128,126,129,0
576,127,129,129,128,125,128,125,128,0
579,127,128,128,129,137,128,123,127,0
585,129,127,127,128,121,128,125,129,0
589,122,128,128,127,126,128,128,127,0
593,129,129,128,127,124,127,129,127,0
595,125,127,127,130,142,125,131,131,0
598,132,125,123,129,136,126,127,130,0
601,124,127,127,127,122,128,130,127,0
604,129,129,130,128,119,127,130,125,0
608,132,127,128,126,125,128,123,129,0
615,125,128,127,125,130,127,126,128,0
619,131,128,129,126,124,128,125,127,0
625,131,130,127,128,129,128,127,126,0
631,129,126,128,127,131,128,123,125,0
634,124,127,127,126,124,128,131,128,0
637,123,128,129,128,132,128,129,126,0
640,129,129,128,127,126,127,129,127,0
643,128,128,129,129,137,128,123,126,0
645,130,127,127,127,125,128,126,126,0
649,125,128,127,127,123,127,124,127,0
652,128,128,127,126,129,128,125,129,0
655,128,128,129,128,132,127,126,131,0
658,125,127,123,130,135,126,128,131,0
665,122,126,125,129,123,127,132,125,0
669,134,129,129,127,121,127,132,127,0
672,129,128,127,125,122,128,131,127,0
675,134,128,127,127,122,128,125,126,0
678,130,128,128,129,132,127,132,127,0
681,133,129,129,127,121,127,129,129,0
684,130,129,126,126,126,128,125,127,0
687,129,128,128,128,129,128,123,128,0
702,128,127,127,129,128,127,129,129,0
705,125,128,128,127,130,127,126,129,0
708,119,128,127,128,129,128,131,127,0
711,125,127,128,128,125,128,124,126,0
716,119,125,126,129,134,125,131,128,0
721,135,128,128,127,121,127,129,128,0
724,131,128,128,126,122,127,124,126,0
729,124,125,126,128,129,128,129,128,0
737,129,128,128,127,132,127,127,128,0
740,131,129,128,129,136,128,128,127,0
743,130,128,129,128,133,127,127,126,0
747,121,126,123,129,135,124,130,130,0
751,126,126,124,128,135,126,127,129,0
753,129,129,129,127,120,128,127,127,0
756,130,127,130,128,123,128,131,127,0
759,132,127,129,126,125,130,130,125,0
777,129,125,129,126,122,128,131,127,0
783,132,129,129,126,126,128,124,127,0
787,128,129,127,128,125,129,122,125,0
790,123,126,129,128,131,129,127,127,0
794,129,127,128,129,140,128,126,128,0
797,130,129,127,126,124,127,126,128,0
801,132,129,128,128,127,129,126,128,0
804,129,127,129,129,138,127,128,130,0
807,122,126,126,129,130,128,131,127,0
810,132,129,127,127,125,128,125,127,0
814,130,128,127,126,124,128,127,126,0
817,130,127,128,126,126,127,125,126,0
820,123,126,128,129,139,126,128,130,0
823,122,129,128,128,122,127,129,127,0
826,133,129,127,128,125,128,129,127,0
829,129,127,128,129,135,128,131,128,0
833,126,126,125,129,136,127,129,129,0
836,128,128,127,128,120,128,128,127,0
839,129,129,129,126,125,128,130,128,0
842,127,127,128,129,129,128,129,127,0
846,128,127,128,128,125,128,129,128,0
851,132,128,128,127,123,128,127,128,0
855,131,129,128,127,123,128,127,128,0
857,126,127,127,126,127,129,128,127,0
860,130,125,127,129,137,125,131,130,0
863,127,127,126,129,136,127,130,126,0
866,133,129,129,125,122,128,125,127,0
869,133,127,129,126,124,128,128,126,0
872,128,127,127,126,125,128,127,127,0
887,126,127,129,127,125,128,124,127,0
891,122,129,129,128,130,128,126,126,0
896,129,128,127,128,131,128,125,129,0
900,120,126,126,130,138,127,125,127,0
904,131,128,129,126,122,128,128,126,0
907,133,129,129,127,122,127,129,129,0
911,123,127,128,128,128,129,122,128,0
914,119,127,127,128,126,128,128,128,0
917,129,128,129,128,124,127,127,129,0
920,130,130,128,128,128,127,126,129,0
923,127,128,128,128,126,127,129,127,0
929,129,126,129,128,129,128,126,130,0
935,123,127,126,130,135,126,127,132,0
938,124,128,125,128,134,129,126,126,0
941,129,126,129,127,120,128,126,125,0
944,127,125,128,128,119,129,123,125,0
947,129,127,128,126,120,127,128,128,0
950,129,129,129,128,120,127,124,127,0
953,131,128,127,126,128,128,127,127,0
965,124,126,127,127,132,128,126,128,0
969,124,127,129,127,127,128,126,128,0
972,126,128,127,128,125,128,123,126,0
975,126,128,128,128,132,128,124,127,0
978,128,126,128,128,125,128,128,130,0
983,121,126,123,129,137,124,127,131,0
986,124,128,129,127,124,128,127,127,0
989,128,127,127,126,126,127,126,127,0
999,124,126,126,128,127,128,126,126,0
1004,127,126,128,127,127,128,129,127,0
1009,130,129,128,127,126,128,128,127,0
1012,129,128,129,128,127,129,127,126,0
1015,121,127,128,128,136,127,124,131,0
1018,130,126,123,129,136,126,126,130,0
1022,122,127,130,128,124,128,127,125,0
1025,128,129,126,128,125,128,126,127,0
1028,131,128,128,127,126,128,127,127,0
1031,131,127,126,128,126,129,128,127,0
1038,131,129,128,127,123,128,126,127,0
1043,129,127,129,128,129,127,124,127,0
1046,124,128,127,128,125,127,125,127,0
1049,126,127,128,126,123,128,128,128,0
1052,120,126,128,127,127,128,130,128,0
1056,132,129,128,128,126,128,127,127,0
1059,130,128,128,129,133,128,128,128,0
1061,125,127,128,129,139,127,127,131,0
1064,122,127,125,129,131,128,131,127,0
1074,132,129,128,128,121,128,130,126,0
1079,131,128,128,126,123,128,129,127,0
1082,130,127,128,128,122,127,128,126,0
1088,128,129,127,129,134,127,129,130,0
1094,125,129,125,130,135,127,127,129,0
1097,125,127,125,129,134,126,128,127,0
1101,134,126,130,127,119,128,129,127,0
1105,133,129,128,125,121,129,131,126,0
1108,134,128,128,126,123,128,132,127,0
1111,133,128,127,125,128,125,130,129,0
1114,124,126,124,129,139,125,133,129,0
1117,130,128,125,127,120,129,129,127,0
1120,130,130,128,127,120,127,129,126,0
1123,134,128,127,127,122,129,130,127,0
1126,133,127,128,127,122,129,130,127,0
1128,133,128,128,129,125,127,128,129,0
1131,131,129,127,128,128,127,130,129,0
1134,132,128,126,129,137,128,124,127,0
1149,128,126,126,128,137,127,126,128,0
1153,131,127,128,127,136,128,130,129,0
1156,128,128,127,128,125,127,130,128,0
1160,131,128,127,126,127,129,124,126,0
1164,125,127,130,128,125,127,128,129,0
1168,123,126,126,129,136,126,128,130,0
1171,124,128,128,126,120,127,130,126,0
1175,129,128,128,126,128,129,129,126,0
1186,125,127,128,126,121,128,127,128,0
1189,128,127,128,128,126,127,129,129,0
1192,131,129,129,127,131,127,128,128,0
1196,129,128,129,128,129,128,124,128,0
1199,133,126,125,129,138,126,125,130,0
1204,123,126,126,128,137,129,131,127,0
1208,134,129,128,128,123,127,131,127,0
1211,133,128,127,126,123,127,131,128,0
1214,122,126,129,126,126,128,127,126,0
1217,130,127,129,126,125,127,126,129,0
1220,125,129,127,126,123,128,129,127,0
1223,128,127,127,128,126,129,127,129,0
1226,126,127,125,129,138,127,129,129,0
1228,127,126,126,128,134,125,129,129,0
1234,130,129,129,127,126,128,126,126,0
1237,126,128,128,126,126,129,131,127,0
1241,128,127,129,128,122,128,128,127,0
1244,126,127,127,125,123,127,130,127,0
1247,132,130,129,127,123,126,129,127,0
1257,129,127,129,128,127,127,129,127,0
1260,132,128,129,126,128,127,127,128,0
1263,118,124,127,130,136,127,130,128,0
1267,132,129,129,128,122,128,128,126,0
1270,128,129,128,126,129,127,125,127,0
1274,121,127,128,129,124,128,124,126,0
1277,126,127,127,129,137,128,124,127,0
1280,129,129,127,126,129,126,129,128,0
1288,130,129,128,127,126,128,125,130,0
1291,121,125,125,129,138,127,128,130,0
1295,125,126,126,129,134,125,127,131,0
1299,128,127,127,126,118,128,129,128,0
1302,130,128,130,127,122,128,127,127,0
1305,133,126,127,126,125,128,127,125,0
1311,125,127,127,128,123,128,131,128,0
1317,132,129,128,126,122,127,127,127,0
1323,130,129,128,128,129,127,126,127,0
1328,119,127,126,129,138,127,128,129,0
1331,123,127,126,129,134,128,125,125,0
1334,130,128,128,128,126,127,124,128,0
1338,132,129,128,126,120,128,124,128,0
1341,131,127,128,128,126,128,126,126,0
1345,123,126,126,129,134,127,129,130,0
1348,125,127,126,129,123,128,127,128,0
1358,131,128,128,126,120,128,129,127,0
1363,131,128,127,126,123,128,129,126,0
1366,132,125,127,129,133,126,126,127,0
1368,124,128,129,128,118,128,129,126,0
1371,132,128,130,128,120,128,128,127,0
1376,129,129,128,127,123,128,130,127,0
1380,126,127,128,126,127,128,128,128,0
1383,128,128,129,126,128,128,129,128,0
1386,129,129,128,126,124,128,125,128,0
1390,130,126,127,126,125,127,127,130,0
1396,121,126,126,129,140,125,126,130,0
1400,121,126,125,128,135,128,129,128,0
1403,130,128,129,126,121,128,130,127,0
1406,134,126,127,128,119,129,128,125,0
1409,130,127,127,128,124,129,128,125,0
1412,128,128,129,126,121,127,131,127,0
1415,128,129,128,128,125,128,131,128,0
1418,130,127,128,129,126,127,130,127,0
1421,130,128,127,129,130,128,129,127,0
1425,123,127,127,127,123,127,127,129,0
1428,131,129,128,129,125,128,125,127,0
1444,127,128,127,129,131,128,129,126,0
1447,125,127,128,129,139,128,127,130,0
1451,127,127,125,129,139,126,126,126,0
1457,128,129,128,125,129,127,129,128,0
1460,135,128,126,128,126,129,131,127,0
1463,132,127,127,127,125,128,131,128,0
1468,127,127,128,129,128,128,130,127,0
1471,129,130,129,127,122,128,127,127,0
1484,129,129,127,126,123,128,128,126,0
1488,128,127,129,129,133,129,122,130,0
1492,121,125,126,128,123,128,127,126,0
1495,123,129,127,126,122,128,131,128,0
1499,128,128,129,128,132,128,126,126,0
1502,128,128,128,128,134,128,129,127,0
1505,116,127,128,128,134,128,127,126,0
1510,131,129,128,127,127,127,126,127,0
1514,129,128,124,129,136,126,131,131,0
1517,123,127,124,129,139,126,129,129,0
1520,124,126,127,127,121,128,131,127,0
1524,132,129,127,127,124,128,130,128,0
1527,130,129,128,126,129,128,125,127,0
1530,132,127,128,126,120,128,130,126,0
1537,127,127,128,126,122,128,125,127,0
1545,131,128,129,127,131,128,124,128,0
1549,128,128,128,127,135,127,128,127,0
1553,125,127,128,128,125,128,127,126,0
1560,132,125,128,128,128,128,129,128,0
1564,122,128,127,125,124,127,132,128,0
1568,126,128,128,128,125,128,123,127,0
1572,125,127,127,129,139,127,129,129,0
1575,121,127,126,129,134,127,126,126,0
1578,131,128,128,126,120,127,129,127,0
1582,134,129,129,126,120,127,129,127,0
1585,128,128,128,128,121,129,124,126,0
1588,130,124,126,129,137,127,128,130,0
1591,125,128,128,128,125,127,128,127,0
1595,130,129,127,126,122,127,126,127,0
1598,129,127,127,128,124,128,129,130,0
1600,120,126,126,129,138,126,125,128,0
1603,132,129,128,128,120,128,125,126,0
1606,129,128,128,128,122,127,130,128,0
1609,118,128,128,126,123,127,130,127,0
1612,127,126,128,126,124,128,129,127,0
1616,134,127,128,127,127,128,125,128,0
1619,131,129,128,128,130,127,130,128,0
1623,119,128,127,129,139,126,129,132,0
1628,125,126,125,128,138,126,125,129,0
1633,123,128,127,128,125,128,130,128,0
1636,127,129,128,127,132,127,128,126,0
1641,127,128,128,128,124,128,127,125,0
1644,128,127,127,128,123,128,131,127,0
1647,128,128,129,127,121,127,130,129,0
1651,129,128,129,128,133,128,126,128,0
1655,132,129,127,128,130,128,125,127,0
1659,124,126,127,128,130,128,126,127,0
1664,125,128,128,129,135,127,126,127,0
1672,123,128,127,129,142,126,129,128,0
1676,128,128,127,128,139,129,127,129,0
1680,122,127,128,127,123,128,129,129,0
1683,123,126,127,129,135,126,124,126,0
1686,130,128,130,126,121,127,130,126,0
1689,134,128,127,126,121,127,131,128,0
1693,121,127,128,128,123,128,125,126,0
1696,122,127,128,127,122,128,130,127,0
1706,134,129,129,128,122,127,126,127,0
1710,130,129,127,126,127,128,123,129,0
1713,122,126,126,129,140,126,126,128,0
1716,130,125,130,129,127,128,128,127,0
1719,133,129,128,126,120,127,131,127,0
1723,129,128,127,128,121,128,126,126,0
1727,131,124,125,129,139,127,130,129,0
1730,124,126,126,129,135,126,129,127,0
1733,130,129,129,126,127,128,126,128,0
1737,133,129,127,128,125,128,126,128,0
1740,121,128,128,127,122,128,129,127,0
1746,125,127,128,127,132,127,130,127,0
1751,127,129,127,126,126,127,123,125,0
1753,124,128,127,129,135,128,130,128,0
1757,125,127,128,126,122,128,127,130,0
1760,121,124,127,126,122,128,124,127,0
1764,131,129,129,126,123,127,127,127,0
1767,130,129,127,127,126,127,130,129,0
1770,120,127,128,128,122,128,127,126,0
1786,121,126,125,128,139,126,130,133,0
1791,128,128,126,126,123,127,125,127,0
1794,134,127,128,128,129,128,130,127,0
1798,130,128,127,126,122,127,131,127,0
1802,128,126,128,128,124,128,130,127,0
1806,130,128,129,127,128,128,125,129,0
1810,118,126,128,127,123,128,128,128,0
1813,128,127,128,129,138,125,131,131,0
1816,122,126,124,130,136,126,126,131,0
1820,130,129,129,128,121,128,130,128,0
1823,133,129,128,126,121,128,124,129,0
1827,118,128,128,126,128,127,131,127,0
1831,125,128,128,126,122,128,129,127,0
1834,133,129,128,128,124,128,128,127,0
1839,129,129,127,128,128,127,127,127,0
1843,128,127,127,128,124,127,122,125,0
1846,123,126,128,126,128,128,125,128,0
1850,131,125,126,129,138,128,128,126,0
1853,134,128,129,126,128,128,124,127,0
1856,127,129,129,126,131,128,123,127,0
1860,128,127,127,128,125,127,127,130,0
1863,124,127,126,130,137,127,132,127,0
1867,130,129,128,128,119,128,127,126,0
1870,127,128,127,128,126,128,126,126,0
1873,123,127,127,128,139,127,126,128,0
1877,124,124,130,126,125,128,128,127,0
1880,134,129,128,128,123,128,130,127,0
1934,132,128,128,126,123,129,125,126,0
1943,123,127,126,130,137,126,126,130,0
1950,119,128,126,129,130,127,130,127,0
1955,131,129,129,126,120,128,130,127,0
1959,132,128,128,127,122,128,126,126,0
2001,128,127,127,128,128,129,126,127,0
2011,133,128,127,128,121,127,130,128,0
2018,133,129,128,126,123,128,123,127,0
2023,131,128,127,128,127,127,130,127,0
2028,121,124,126,129,140,126,127,130,0
2069,119,126,126,129,138,127,132,128,0
2078,130,129,129,128,123,128,129,128,0
2086,133,127,127,128,125,127,126,127,0
2094,128,127,128,128,129,128,125,126,0
2101,125,127,127,128,125,127,130,128,0
2107,123,128,127,127,128,128,129,128,0
2112,132,129,128,127,126,128,127,126,0
2118,128,126,128,126,123,128,128,131,0
2123,123,127,124,128,137,126,126,131,0
2127,120,129,131,126,124,129,126,126,0
2132,125,128,127,127,125,128,131,128,0
2135,120,125,129,128,123,128,130,126,0
2142,128,126,128,128,126,128,125,127,0
2147,133,129,131,128,130,127,125,127,0
2150,128,128,129,128,128,127,126,129,0
2154,121,127,129,127,129,127,131,128,0
2158,125,127,129,126,127,128,127,126,0
2162,133,129,130,128,129,128,125,127,0
2167,129,128,127,126,125,128,128,127,0
2174,124,124,124,129,137,126,128,130,0
2180,122,126,125,128,137,128,133,128,0
2183,134,129,129,127,126,128,125,128,0
2187,133,129,129,125,121,128,126,127,0
2190,130,127,128,126,121,127,130,126,0
2193,120,126,127,128,124,128,125,126,0
2197,130,128,127,126,122,128,128,127,0
2201,129,128,127,128,125,127,125,128,0
2204,120,125,127,129,125,128,125,126,0
2207,128,127,126,129,135,128,127,127,0
2211,128,129,126,126,122,127,132,128,0
2214,134,129,127,128,128,128,123,126,0
2217,127,127,129,127,127,129,125,130,0
2271,121,126,124,128,137,126,125,130,0
2284,127,126,127,128,120,127,131,128,0
2293,129,129,127,128,123,128,131,127,0
2299,124,127,127,127,121,128,130,127,0
2304,130,127,127,126,121,127,126,126,0
2308,128,128,127,126,128,127,131,128,0
2313,125,129,127,128,123,127,127,127,0
2317,130,127,128,128,122,128,123,127,0
2321,130,127,129,129,127,128,123,129,0
2324,122,127,126,128,133,127,127,128,0
2327,135,128,129,129,122,127,127,128,0
2331,122,129,128,128,136,127,123,128,0
2338,120,126,127,126,122,127,131,127,0
2342,132,127,127,128,122,127,129,128,0
2345,131,129,127,126,126,128,126,129,0
2348,128,128,126,129,138,125,128,131,0
2351,129,126,123,128,135,126,127,130,0
2355,123,128,126,125,116,128,129,127,0
2358,130,130,128,127,123,128,125,125,0
2361,126,125,126,128,125,128,128,127,0
2364,133,127,128,126,121,128,129,127,0
2368,134,128,128,126,124,127,128,126,0
2371,131,129,129,128,123,127,129,128,0
2375,130,128,128,128,125,129,124,126,0
2377,127,126,127,129,126,127,129,128,0
2380,121,128,127,128,124,127,128,129,0
2383,123,129,127,128,125,127,130,127,0
2386,126,128,128,127,130,128,123,125,0
2389,123,126,128,128,131,128,122,125,0
2392,123,127,128,128,126,129,130,133,0
2395,123,128,125,129,139,128,128,127,0
2398,133,129,127,126,130,128,128,126,0
2401,129,126,128,128,129,129,128,130,0
2404,119,127,123,129,137,126,127,130,0
2408,125,129,128,128,125,127,130,127,0
2412,131,127,128,127,131,127,130,126,0
2416,125,126,128,128,121,128,130,128,0
2419,126,128,128,126,124,128,125,127,0
2421,134,130,127,126,126,127,128,128,0
2424,119,128,127,126,125,127,130,127,0
2429,122,126,127,126,127,128,123,126,0
2435,124,126,126,129,141,126,125,127,0
2439,133,128,129,127,123,127,131,127,0
2474,130,128,128,128,124,127,131,128,0
2482,125,128,128,128,130,128,130,126,0
2490,128,126,128,128,122,128,125,127,0
2494,128,128,128,127,128,128,124,127,0
2499,125,128,128,126,127,127,130,128,0
2543,129,127,127,129,135,128,124,126,0
2554,128,127,127,129,138,125,132,131,0
2564,126,128,124,129,137,126,126,128,0
2573,135,127,129,125,122,128,128,127,0
2579,133,126,127,128,120,128,126,127,0
2585,126,124,129,128,120,127,131,128,0
2590,134,130,129,127,126,128,126,127,0
2595,130,129,129,127,129,128,129,127,0
2599,127,127,127,127,128,128,124,127,0
2603,120,127,128,128,129,126,125,132,0
2606,121,128,129,128,127,127,124,127,0
2609,129,129,129,128,127,128,126,126,0
2613,130,128,128,128,127,128,123,127,0
2616,135,127,128,126,124,128,124,128,0
2619,132,129,127,126,124,127,130,129,0
2623,130,129,128,128,130,127,125,126,0
2626,128,128,127,129,138,127,126,131,0
2629,130,125,123,129,136,125,125,130,0
2634,128,127,129,127,122,128,131,127,0
2639,130,130,128,127,122,128,127,126,0
2642,124,127,127,127,121,127,130,127,0
2646,127,126,127,128,124,128,128,127,0
2650,128,128,127,128,123,128,128,127,0
2653,129,130,128,126,125,128,125,127,0
2656,123,128,129,129,129,126,128,130,0
2659,124,125,123,130,139,126,125,130,0
2664,123,127,127,127,121,128,130,127,0
2667,129,129,128,128,127,128,126,126,0
2671,128,128,130,128,126,128,127,126,0
2673,134,127,129,126,121,128,125,125,0
2677,126,126,128,128,125,127,131,127,0
2680,120,129,128,127,124,127,129,127,0
2683,130,127,127,128,124,128,131,128,0
2687,125,127,129,129,135,128,130,128,0
2690,128,127,128,128,124,127,129,128,0
2695,127,129,128,127,128,128,130,129,0
2698,119,128,128,126,127,127,130,127,0
2703,129,127,128,129,140,126,128,130,0
2706,125,126,126,129,131,127,128,127,0
2708,129,130,128,126,123,128,128,125,0
2711,128,128,127,127,128,128,128,126,0
2714,130,125,128,128,130,128,123,128,0
2718,120,124,127,128,122,127,129,127,0
2721,135,129,128,128,124,127,126,128,0
2724,134,127,128,126,126,128,126,126,0
2728,126,128,127,129,135,125,131,131,0
2743,121,126,126,128,137,126,127,128,0
2749,135,130,129,125,121,127,131,128,0
2752,130,128,128,125,125,130,131,128,0
2761,129,127,129,125,123,128,128,125,0
2768,128,127,127,126,123,127,131,128,0
2812,133,129,127,128,127,128,127,128,0
2823,125,126,127,128,133,127,128,126,0
2833,122,126,127,126,127,128,127,126,0
2838,123,125,128,128,126,128,127,126,0
2843,126,128,127,126,127,127,129,128,0
2848,130,127,127,129,128,128,125,127,0
2852,123,127,127,129,125,128,125,126,0
2855,123,127,129,128,130,127,130,128,0
2859,128,129,127,128,123,128,130,128,0
2862,131,129,126,128,127,127,123,128,0
2866,128,127,128,128,137,126,131,132,0
2869,129,126,124,129,135,126,127,128,0
2872,129,129,129,127,122,128,126,126,0
2875,130,127,127,128,126,128,132,127,0
2879,130,127,128,125,121,128,127,126,0
2883,128,127,126,128,125,128,128,127,0
2887,122,128,128,126,121,127,132,128,0
2891,129,129,128,128,128,128,128,128,0
2894,131,128,128,128,126,127,129,130,0
2897,124,125,126,129,137,127,128,126,0
2901,134,126,128,128,126,127,128,127,0
2904,128,129,128,127,120,128,129,129,0
2910,126,128,127,127,134,129,125,128,0
2915,123,127,128,127,123,128,127,126,0
2918,130,127,127,126,124,128,130,129,0
2921,130,129,129,126,125,127,125,127,0
2925,124,128,128,128,133,128,124,127,0
2928,129,127,129,129,141,126,131,131,0
2931,126,127,125,129,138,128,127,126,0
2935,133,129,127,126,121,127,132,127,0
2938,130,128,127,128,125,128,127,127,0
2943,131,128,129,126,127,129,128,126,0
2947,125,128,127,128,130,127,128,128,0
2950,122,129,127,126,128,127,129,128,0
2953,131,127,128,127,141,127,129,130,0
2957,122,127,126,129,136,127,129,130,0
2960,124,127,126,129,135,127,132,128,0
2964,129,129,128,125,121,127,131,127,0
2967,133,129,129,128,121,128,126,125,0
2970,128,127,127,129,137,129,123,126,0
2974,129,128,128,126,122,128,127,127,0
2977,128,129,128,127,127,128,123,128,0
2980,129,128,127,128,125,128,126,126,0
2984,125,126,128,126,126,127,128,129,0
2987,125,126,127,128,139,128,129,128,0
2990,131,130,128,126,139,127,129,127,0
2993,129,128,127,128,122,128,126,127,0
2997,128,125,126,129,133,128,130,127,0
3001,132,127,129,127,122,128,130,128,0
3006,130,129,129,127,124,128,127,127,0
3011,129,128,128,128,125,128,127,127,0
3015,120,127,128,126,121,128,125,127,0
3017,121,126,126,128,135,126,127,131,0
3020,124,128,128,128,123,127,128,126,0
3024,133,128,130,128,123,128,125,125,0
3028,135,124,127,128,122,128,131,128,0
3031,131,128,128,127,127,128,125,128,0
3035,133,130,127,129,129,128,129,128,0
3039,124,128,128,128,138,127,127,128,0
3043,120,126,126,126,123,128,125,127,0
3046,129,126,127,128,126,128,128,128,0
3050,134,129,128,128,124,128,128,127,0
3054,123,128,126,127,127,128,131,130,0
3063,124,126,123,129,138,126,129,130,0
3070,126,126,125,129,136,128,132,126,0
3074,133,129,129,126,123,128,128,126,0
3079,133,128,127,126,124,129,131,128,0
3083,119,127,128,128,126,128,127,127,0
3087,126,128,127,126,121,128,130,129,0
3090,130,127,128,126,129,128,127,129,0
3095,131,129,127,126,128,127,129,128,0
3099,126,127,128,128,137,126,126,130,0
3102,124,126,126,130,139,126,130,131,0
3106,122,129,130,126,125,128,126,126,0
3109,130,128,127,126,120,128,126,126,0
3115,127,128,128,126,126,128,128,127,0
3121,132,127,129,128,133,127,131,127,0
3126,129,127,128,127,124,128,131,128,0
3130,129,128,128,128,130,128,123,126,0
3134,122,126,127,129,138,127,130,126,0
3138,132,127,129,129,136,128,124,126,0
3141,133,128,127,126,123,127,129,128,0
3144,134,130,127,128,123,127,129,127,0
3147,123,128,127,128,123,128,125,125,0
3151,129,125,126,129,140,125,127,131,0
3155,127,127,125,128,124,127,128,126,0
3158,129,129,128,126,121,127,129,127,0
3161,131,127,127,126,122,128,128,127,0
3164,126,126,127,128,138,126,130,129,0
3168,120,128,129,126,119,127,132,128,0
3171,129,129,128,128,122,128,126,128,0
3174,130,127,128,127,129,127,130,128,0
3178,130,127,129,128,126,128,127,128,0
3182,123,127,128,128,126,128,125,126,0
3185,130,129,128,128,133,128,128,130,0
3188,117,129,129,129,122,127,127,127,0
3191,121,127,127,127,127,127,128,130,0
3194,127,126,124,129,137,126,128,129,0
3197,130,129,127,125,120,127,131,128,0
3199,133,128,128,126,125,128,128,126,0
3202,135,125,130,128,132,128,126,128,0
3205,132,125,128,126,124,128,126,126,0
3210,125,129,127,126,128,127,129,128,0
3216,126,128,128,128,126,128,124,127,0
3219,121,126,125,129,137,126,129,129,0
3222,124,127,128,128,119,128,130,127,0
3225,129,129,128,126,119,127,129,127,0
3228,133,129,128,128,129,128,125,125,0
3231,123,124,128,127,121,128,126,125,0
3234,123,126,127,126,123,128,126,127,0
3238,124,129,127,126,124,128,127,127,0
3243,126,128,127,128,124,128,127,129,0
3246,118,126,126,129,140,125,129,131,0
3249,123,126,124,129,139,126,128,128,0
3251,134,128,128,128,125,128,128,126,0
3254,123,128,127,128,125,128,129,126,0
3258,130,127,128,126,122,128,127,126,0
3261,131,126,127,128,128,128,131,127,0
3265,129,130,127,128,123,128,128,127,0
3268,128,128,128,129,127,127,130,128,0
3271,132,127,129,127,129,129,123,127,0
3274,129,127,127,129,130,128,124,128,0
3279,130,129,128,127,125,127,128,127,0
3283,126,130,126,126,128,127,128,128,0
3287,125,126,125,130,137,126,129,130,0
3291,125,126,126,129,139,127,123,126,0
3294,130,129,129,126,120,127,132,127,0
3298,130,128,128,127,129,128,129,128,0
3304,128,127,128,126,129,128,125,127,0
3308,123,124,126,128,137,126,130,131,0
3312,123,129,127,125,121,127,128,126,0
3320,130,128,127,128,123,128,127,126,0
3323,122,127,127,128,122,127,126,128,0
3327,127,127,127,130,140,125,126,131,0
3331,122,129,128,126,127,127,131,128,0
3333,128,128,128,126,125,128,129,128,0
3336,129,128,128,128,123,128,128,127,0
3341,123,127,127,126,127,127,131,127,0
3344,130,128,128,128,127,128,129,129,0
3347,124,129,126,128,127,127,123,130,0
3350,119,126,126,129,137,126,127,130,0
3353,122,127,126,129,135,127,129,132,0
3356,126,128,125,128,134,127,129,127,0
3363,128,129,127,127,123,127,128,127,0
3368,131,127,128,126,120,128,131,126,0
3374,133,128,128,127,121,129,125,126,0
3378,133,129,128,126,129,128,128,126,0
3381,131,129,128,128,122,127,128,126,0
3385,127,127,128,128,130,127,126,127,0
3388,126,126,125,129,138,126,125,131,0
3392,122,127,126,126,120,127,130,128,0
3395,129,129,127,128,120,127,127,126,0
3399,128,128,129,128,128,128,124,125,0
3402,126,127,127,128,123,128,127,126,0
3406,128,128,128,126,124,128,129,128,0
3410,131,129,128,128,124,127,127,127,0
3413,123,127,126,126,128,127,128,132,0
3418,125,127,124,130,140,126,129,131,0
3422,122,127,130,128,122,128,126,127,0
3429,125,129,128,127,122,128,129,126,0
3434,130,128,126,127,122,128,128,128,0
3437,131,127,129,129,138,127,128,129,0
3440,123,127,126,129,137,126,130,126,0
3444,134,129,130,126,120,127,132,125,0
3448,128,128,128,126,122,128,129,125,0
3451,134,128,128,127,122,128,124,126,0
3454,126,127,127,128,124,127,128,126,0
3457,127,129,128,127,131,128,125,128,0
3460,123,128,128,127,125,128,123,126,0
3463,127,127,128,129,127,127,124,126,0
3467,122,126,125,128,139,126,128,132,0
3470,122,128,128,126,121,127,130,128,0
3474,133,128,128,128,122,128,130,127,0
3477,132,127,128,128,122,128,130,128,0
3480,125,127,129,128,122,128,126,127,0
3486,126,129,129,128,127,127,129,128,0
3489,124,128,127,127,135,128,127,127,0
3492,122,127,128,128,127,129,124,126,0
3495,124,125,126,130,139,127,129,131,0
3499,124,130,128,125,119,128,129,127,0
3502,135,129,127,126,123,128,127,126,0
3506,124,127,127,128,126,127,123,127,0
3509,126,126,127,129,139,126,130,130,0
3512,123,130,128,128,120,127,128,125,0
3515,132,128,127,126,120,128,128,125,0
3519,127,125,127,129,136,127,126,130,0
3523,121,125,125,129,134,127,131,130,0
3526,131,128,129,126,118,128,128,125,0
3530,131,128,128,127,119,128,130,126,0
3535,132,128,128,128,123,128,126,127,0
3539,125,126,127,127,121,128,127,126,0
3542,126,129,128,129,130,128,128,126,0
3545,128,129,129,129,127,128,124,125,0
3548,121,125,128,128,128,128,127,128,0
3552,120,127,128,126,125,127,125,127,0
3559,125,129,128,127,130,127,130,128,0
3555,129,128,128,127,124,127,133,127,0
3561,120,127,127,126,131,129,125,128,0
3564,128,127,129,128,126,127,123,127,0
3569,131,128,127,128,126,127,130,128,0
3572,130,129,129,128,128,128,127,127,0
3576,130,127,125,129,138,127,127,129,0
3579,126,126,125,129,136,126,128,131,0
3583,127,127,126,128,120,128,129,127,0
3586,135,129,129,126,123,128,128,127,0
3590,129,129,129,126,123,129,124,126,0
3593,134,127,127,128,124,129,127,127,0
3596,124,129,127,128,127,128,130,128,0
3600,127,129,128,126,130,127,127,128,0
3603,133,128,128,128,139,129,124,126,0
3606,123,125,128,126,130,128,125,127,0
3609,132,128,126,129,127,128,125,127,0
3612,130,130,128,128,122,128,127,126,0
3615,130,128,127,128,124,128,126,127,0
3619,131,126,128,128,132,128,128,127,0
3622,121,128,129,128,133,126,130,129,0
3625,129,128,128,128,129,127,125,130,0
3628,120,128,127,129,139,125,128,132,0
3631,129,127,124,129,137,126,127,130,0
3637,125,127,125,127,120,128,127,127,0
3644,133,127,129,125,118,127,130,126,0
3649,129,128,127,127,122,127,131,126,0
3652,128,127,128,128,119,128,126,125,0
3656,129,128,127,128,126,128,127,127,0
3659,129,129,129,128,132,128,124,126,0
3668,132,127,128,128,123,128,125,126,0
3675,126,127,128,128,132,128,125,127,0
3679,123,126,128,129,131,128,126,128,0
3683,124,129,128,128,125,127,128,127,0
3686,121,128,126,128,127,128,124,126,0
3690,123,126,127,128,128,127,128,131,0
3693,129,126,126,129,138,125,127,132,0
3696,120,129,129,127,121,128,131,126,0
3700,129,129,127,128,121,128,127,126,0
3703,125,126,127,128,125,127,127,128,0
3706,130,128,128,128,130,127,130,129,0
3710,127,130,127,127,129,128,130,129,0
3713,125,129,127,127,126,128,125,128,0
3717,131,127,129,128,129,129,124,128,0
3720,127,127,128,125,126,127,129,129,0
3722,121,129,127,127,126,127,128,128,0
3725,122,128,126,127,123,128,124,131,0
3728,121,125,129,129,136,127,129,127,0
3731,129,126,127,128,123,127,130,128,0
3734,131,129,128,127,122,128,129,126,0
3737,132,128,127,126,127,129,130,130,0
3740,122,126,126,129,136,127,128,129,0
3743,123,126,126,128,132,127,131,129,0
3746,132,129,129,125,116,127,129,126,0
3748,135,128,130,127,119,127,128,126,0
3753,127,127,128,127,119,127,132,125,0
3757,130,127,127,125,125,127,131,129,0
3761,120,128,128,127,133,127,128,130,0
3764,122,129,128,128,125,128,127,128,0
3768,133,127,129,127,128,128,125,127,0
3772,128,125,129,126,126,128,128,129,0
3776,122,129,128,126,122,128,129,128,0
3779,129,129,128,128,127,128,126,125,0
3782,119,126,128,129,138,126,128,131,0
3785,127,125,125,129,137,126,126,130,0
3789,124,127,128,128,123,128,130,127,0
3792,131,129,128,125,129,129,131,129,0
3795,126,128,130,126,121,128,124,126,0
3798,133,125,130,126,123,128,127,126,0
3801,134,126,128,126,125,128,127,127,0
3804,127,131,129,126,123,127,130,128,0
3808,129,128,129,127,132,128,127,127,0
3811,131,127,126,129,138,126,130,130,0
3816,125,127,128,128,122,127,128,128,0
3819,132,129,130,129,127,127,127,127,0
3822,130,128,128,128,126,129,124,126,0
3825,131,125,128,128,131,128,122,126,0
3828,124,127,127,128,129,128,123,127,0
3831,124,129,128,128,125,128,128,129,0
3835,128,127,129,127,123,128,128,127,0
3839,132,127,128,129,136,128,129,132,0
3842,127,127,124,130,137,127,123,127,0
3845,132,129,127,128,122,128,129,128,0
3849,123,128,126,128,133,128,128,126,0
3852,127,127,127,127,126,128,132,128,0
3856,120,128,127,126,122,127,128,127,0
3860,129,129,128,127,125,127,127,128,0
3867,132,127,128,126,126,128,123,126,0
3870,129,126,129,129,127,128,127,127,0
3873,122,127,127,128,125,128,127,127,0
3876,126,128,129,127,127,128,127,127,0
3878,124,128,128,128,132,128,131,131,0
3881,128,126,123,129,138,125,130,130,0
3885,124,127,125,129,135,128,131,128,0
3888,133,130,127,127,125,129,131,127,0
3892,134,128,129,128,131,128,126,125,0
3895,134,128,128,127,123,128,128,127,0
3898,130,128,129,128,129,127,132,127,0
3901,130,128,129,128,130,127,127,127,0
3904,130,128,128,128,125,127,128,126,0
3908,127,126,128,128,127,127,129,127,0
3911,120,126,128,126,125,127,122,127,0
3914,132,129,129,128,123,127,123,126,0
3918,126,128,127,129,126,128,127,127,0
3922,129,127,127,127,128,127,130,127,0
3925,118,126,125,128,136,125,127,131,0
3928,122,127,125,128,121,127,127,126,0
3931,134,128,129,128,126,130,130,127,0
3934,132,128,128,126,127,128,130,125,0
3938,129,128,128,127,123,128,125,127,0
3941,132,128,129,126,127,127,131,129,0
3944,126,129,127,128,122,128,125,126,0
3947,123,127,127,128,127,127,131,129,0
3950,127,126,126,130,141,127,125,128,0
3953,128,129,127,127,132,128,130,128,0
3956,132,130,127,126,126,128,130,128,0
3959,130,127,127,127,134,127,130,130,0
3964,122,126,126,129,140,127,129,130,0
3971,122,127,129,128,121,127,128,126,0
3973,130,128,130,126,122,128,125,126,0
3978,133,127,129,126,123,128,128,127,0
3980,122,128,127,125,127,128,128,128,0
3983,127,129,129,127,132,127,127,127,0
3987,130,128,128,128,132,127,126,127,0
3990,123,128,130,130,141,124,129,130,0
3993,124,125,125,128,137,126,127,130,0
3996,121,126,130,127,124,127,132,127,0
3999,130,129,128,125,125,127,130,125,0
4003,129,128,129,129,136,128,126,126,0
4006,132,126,128,126,123,129,126,126,0
4009,124,129,129,128,123,127,130,129,0
4012,135,130,128,128,132,127,129,127,0
4015,130,127,130,127,127,128,125,129,0
4018,124,126,126,126,125,129,124,126,0
4022,129,127,128,128,126,127,126,128,0
4024,124,128,127,126,124,127,131,129,0
4028,126,127,127,126,128,127,129,130,0
4031,125,126,126,128,136,126,128,126,0
4035,133,127,128,127,121,128,129,127,0
4038,128,130,129,126,126,128,128,127,0
4040,124,126,128,128,132,127,128,128,0
4043,131,125,128,127,127,128,127,128,0
4046,133,127,131,128,124,127,129,129,0
4049,131,129,128,127,122,128,127,126,0
4052,130,128,128,126,126,127,126,127,0
4055,130,127,127,128,129,127,126,130,0
4059,128,127,123,129,135,126,128,130,0
4063,122,127,128,127,122,128,128,125,0
4069,132,126,128,128,121,127,131,125,0
4075,127,126,128,128,128,128,131,126,0
4079,123,129,126,128,128,128,128,127,0
4082,123,130,127,127,124,127,129,129,0
4085,127,129,129,128,133,128,127,129,0
4088,124,126,126,129,139,126,129,129,0
4091,126,125,126,128,120,128,128,126,0
4095,134,130,129,126,123,128,126,127,0
4099,126,128,126,128,124,128,127,126,0
4101,129,127,128,127,123,128,125,127,0
4105,130,125,130,129,127,128,128,129,0
4108,128,129,127,127,130,128,128,129,0
4111,130,128,127,128,133,128,125,127,0
4113,129,127,127,129,142,126,126,131,0
4117,125,125,125,129,139,126,128,127,0
4120,136,130,128,126,123,128,125,127,0
4123,125,128,128,126,125,127,123,127,0
4126,134,125,129,126,123,129,124,126,0
4130,135,128,128,126,126,128,126,128,0
4134,133,128,128,128,125,128,124,127,0
4139,127,129,129,126,130,128,126,127,0
4142,125,127,127,128,128,127,131,128,0
4144,122,127,128,128,130,127,130,128,0
4148,130,128,128,128,128,127,130,129,0
4151,130,129,128,128,123,128,127,127,0
4154,122,126,128,130,140,125,133,130,0
4157,124,126,125,129,136,126,127,130,0
4160,127,127,125,127,115,128,131,127,0
4165,133,130,129,128,124,129,130,126,0
4170,124,127,127,127,121,128,127,126,0
4175,128,125,127,128,120,128,130,127,0
4179,130,128,128,127,122,127,130,129,0
4183,127,129,128,127,124,128,126,127,0
4186,128,128,130,126,124,128,124,127,0
4189,131,127,129,128,132,128,124,126,0
4193,125,126,129,126,128,126,127,127,0
4196,126,128,126,126,124,127,128,127,0
4199,129,128,128,128,130,127,126,126,0
4202,125,126,127,127,123,128,124,128,0
4206,121,129,127,128,123,128,127,127,0
4208,124,129,128,128,129,127,129,128,0
4211,124,127,126,128,130,128,126,129,0
4214,120,126,125,130,136,124,131,131,0
4217,126,126,124,129,137,127,130,127,0
4220,135,127,130,127,126,127,126,126,0
4223,128,128,127,128,126,128,124,127,0
4226,129,127,127,128,122,128,127,127,0
4230,131,128,129,126,125,128,128,127,0
4233,133,128,127,128,122,127,129,126,0
4236,125,127,128,126,125,128,130,126,0
4240,129,126,128,126,128,129,125,129,0
4243,116,129,128,128,124,127,130,129,0
4246,129,130,127,126,125,128,129,128,0
4249,120,127,126,129,126,127,129,127,0
4253,130,127,126,129,139,126,129,131,0
4256,126,126,123,129,138,129,129,127,0
4259,126,130,127,126,120,127,129,127,0
4262,134,128,128,126,122,128,127,126,0
4264,132,125,129,126,122,128,123,126,0
4269,128,128,129,126,127,128,127,128,0
4275,122,129,128,128,124,128,132,127,0
4279,128,129,129,126,125,128,122,126,0
4282,128,125,126,130,139,127,128,131,0
4285,124,126,126,129,139,126,132,130,0
4288,133,129,129,127,122,128,130,127,0
4291,133,129,127,128,122,128,126,127,0
4294,131,125,129,128,124,129,122,127,0
4297,129,128,129,128,126,128,124,128,0
4300,131,129,127,128,123,128,127,127,0
4303,131,129,128,127,141,126,129,129,0
4307,125,126,125,129,139,127,129,129,0
4310,123,126,126,126,120,128,127,126,0
4313,134,130,129,128,126,128,125,127,0
4316,131,127,128,128,130,128,127,126,0
4319,131,127,128,128,126,129,125,126,0
4321,129,126,128,128,123,128,127,126,0
4324,128,126,128,128,125,128,125,126,0
4327,131,125,127,128,126,128,128,127,0
4330,118,129,128,128,130,128,128,127,0
4338,133,129,128,128,127,127,124,127,0
4335,124,126,127,125,125,127,126,128,0
4342,133,128,127,126,127,129,130,131,0
4345,128,128,122,127,137,125,131,129,0
4348,126,126,124,129,135,127,126,126,0
4353,126,128,127,127,122,130,130,128,0
4356,132,129,128,126,129,127,132,127,0
4358,129,128,128,128,123,129,132,126,0
4362,126,127,127,128,121,128,132,128,0
4365,132,129,129,128,129,128,126,128,0
4368,129,127,128,126,121,128,127,126,0
4374,129,128,127,127,122,129,124,127,0
4378,126,125,129,128,139,129,127,126,0
4382,128,128,127,126,120,127,129,126,0
4389,129,129,128,128,121,127,126,127,0
4394,131,125,127,128,123,127,125,129,0
4400,124,126,125,129,138,126,128,130,0
4403,124,127,129,127,122,128,127,127,0
4407,131,129,130,126,128,128,127,128,0
4410,132,128,131,129,135,128,124,126,0
4413,129,125,128,126,122,129,127,126,0
4417,130,129,130,128,127,128,127,127,0
4420,130,130,127,128,128,127,129,127,0
4423,129,127,128,129,138,125,131,131,0
4427,126,125,124,128,137,126,126,130,0
4431,123,127,127,128,123,130,130,129,0
4437,127,130,128,128,132,128,125,127,0
4441,130,127,127,128,128,127,129,127,0
4444,132,126,126,128,122,128,130,128,0
4447,125,128,128,127,128,127,130,128,0
4450,128,130,129,125,123,128,127,125,0
4453,126,127,126,126,128,128,126,126,0
4457,128,127,129,128,124,128,128,129,0
4460,124,127,128,128,122,127,128,129,0
4464,127,129,128,128,123,128,126,128,0
4467,129,128,127,128,129,127,126,127,0
4471,123,125,127,129,140,126,130,128,0
4475,125,128,128,126,124,128,127,128,0
4478,133,128,127,127,127,128,126,128,0
4482,133,127,127,128,123,128,127,127,0
4485,132,126,128,126,124,127,124,126,0
4489,120,128,128,128,121,127,126,126,0
4493,128,128,128,128,122,127,128,126,0
4499,132,129,128,126,132,128,126,128,0
4502,130,128,127,129,139,126,129,130,0
4505,124,126,124,129,138,125,126,127,0
4509,131,129,127,125,119,127,130,127,0
4512,130,129,127,128,122,128,124,127,0
4515,133,125,129,128,127,129,126,125,0
4518,129,126,128,126,122,127,125,127,0
4522,131,131,128,127,121,127,131,129,0
4525,130,129,128,128,131,128,125,127,0
4528,133,127,128,126,124,128,123,126,0
4530,126,127,129,128,134,128,129,128,0
4533,132,128,128,126,122,127,129,128,0
4536,130,128,128,128,140,125,126,130,0
4540,125,126,123,128,135,125,131,129,0
4543,126,125,125,128,135,126,131,126,0
4548,128,130,128,125,120,128,131,126,0
4552,131,129,130,126,120,128,124,125,0
4555,127,125,127,128,121,128,132,128,0
4559,124,127,128,127,122,128,131,127,0
4561,130,127,127,128,130,128,132,128,0
4565,132,129,128,128,128,128,126,129,0
4572,121,127,128,126,129,128,131,127,0
4576,131,125,128,127,127,128,125,127,0
4580,130,127,130,128,125,128,125,129,0
4585,127,128,127,127,129,127,128,128,0
4588,127,127,127,129,135,129,125,128,0
4592,129,126,127,129,129,128,126,128,0
4595,129,128,129,129,138,127,128,128,0
4600,120,129,127,128,130,127,128,128,0
4606,122,127,127,129,140,126,130,131,0
4612,128,126,124,129,135,126,127,130,0
4616,125,128,128,125,122,128,128,126,0
4619,135,129,128,128,126,128,125,127,0
4622,133,126,128,128,122,128,126,125,0
4626,127,127,126,128,126,128,131,126,0
4630,129,128,129,126,124,128,126,126,0
4633,123,129,129,128,127,128,127,128,0
4636,122,128,128,127,128,129,126,125,0
4639,128,127,129,128,125,128,126,126,0
4643,123,128,127,128,129,128,128,127,0
4646,129,128,127,126,123,128,126,126,0
4650,126,125,125,128,139,126,126,130,0
4653,130,125,124,129,136,126,127,128,0
4657,123,126,130,128,121,128,129,128,0
4660,131,130,127,126,121,127,127,127,0
4663,128,128,128,126,137,128,129,126,0
4666,129,128,128,125,127,128,126,127,0
4669,126,127,129,126,139,127,128,126,0
4672,131,130,129,126,123,128,127,126,0
4675,125,127,128,129,126,128,126,127,0
4679,120,124,128,127,122,128,128,129,0
4682,127,125,128,128,130,127,126,128,0
4689,128,130,129,126,131,128,127,127,0
4692,128,129,128,128,126,127,129,129,0
4696,124,126,125,128,136,125,131,130,0
4699,126,126,125,129,132,127,131,127,0
4703,131,129,129,127,126,127,129,127,0
4707,133,129,127,128,122,128,130,126,0
4714,129,125,129,126,125,128,124,126,0
4718,131,125,130,128,124,128,127,127,0
4722,133,129,128,128,126,128,129,128,0
4725,118,129,127,128,126,128,128,129,0
4729,123,127,128,128,132,128,128,128,0
4732,120,127,128,129,124,128,127,129,0
4736,129,129,129,128,137,127,128,129,0
4738,126,128,129,128,139,128,126,128,0
4741,120,126,126,129,139,126,125,129,0
4744,123,126,127,128,134,125,132,129,0
4748,125,128,129,127,123,128,129,126,0
4752,130,130,128,125,119,127,127,126,0
4755,130,127,127,128,127,127,128,126,0
4759,127,124,127,128,122,127,130,126,0
4763,135,128,127,127,122,128,128,127,0
4767,131,129,127,126,131,128,128,127,0
4770,118,127,128,128,138,127,124,125,0
4773,123,126,128,126,126,127,125,126,0
4776,124,128,128,128,126,127,129,128,0
4783,129,128,129,130,140,125,130,130,0
4785,122,126,125,130,135,126,129,131,0
4788,125,125,126,129,132,126,132,129,0
4792,131,129,129,126,120,128,126,127,0
4795,129,129,128,128,124,129,125,126,0
4798,128,127,128,128,126,128,124,127,0
4801,134,126,127,126,123,128,128,127,0
4804,130,129,127,128,124,128,131,128,0
4808,129,128,128,128,123,128,127,127,0
4813,131,127,128,128,125,127,123,125,0
4818,130,127,128,127,127,128,125,128,0
4822,127,128,128,128,123,128,128,127,0
4828,130,129,128,126,129,128,126,126,0
4831,121,128,128,128,128,128,123,126,0
4834,126,126,129,129,139,127,127,129,0
4837,122,127,125,129,137,128,128,127,0
4841,132,129,128,127,121,127,131,126,0
4844,127,128,127,129,133,128,127,125,0
4847,129,125,128,126,120,128,129,126,0
4849,131,127,129,128,127,128,123,127,0
4852,131,131,129,126,128,128,124,128,0
4855,127,128,126,129,140,127,127,131,0
4859,126,126,125,129,137,127,129,130,0
4862,124,127,126,126,120,127,130,127,0
4865,132,129,128,126,121,128,130,127,0
4870,130,128,129,128,123,127,130,127,0
4876,129,127,128,126,123,129,129,126,0
4881,132,127,130,127,138,128,129,126,0
4886,133,130,128,128,122,128,126,127,0
4889,132,127,127,128,130,129,125,127,0
4892,125,126,122,128,137,126,128,130,0
4896,121,126,127,128,121,128,128,127,0
4899,132,129,129,126,121,127,129,127,0
4902,129,127,129,127,127,128,129,126,0
4906,125,127,127,126,128,127,129,127,0
4909,121,128,129,129,127,129,128,127,0
4912,123,129,128,127,122,128,132,128,0
4916,132,129,128,128,128,130,125,126,0
4920,133,126,128,126,126,128,129,127,0
4924,129,127,129,128,128,128,127,129,0
4930,129,130,127,128,125,127,125,127,0
4933,125,128,126,129,141,126,127,130,0
4937,125,126,125,129,138,126,125,129,0
4939,124,127,126,129,134,127,129,128,0
4942,133,130,128,127,122,128,123,128,0
4945,129,128,128,126,122,127,130,127,0
4948,134,126,128,128,121,128,129,127,0
4951,127,126,128,126,122,127,131,128,0
4955,126,130,128,127,122,128,126,128,0
4958,125,129,128,127,125,128,124,126,0
4961,127,127,128,128,136,127,123,126,0
4964,123,124,125,129,139,126,131,130,0
4968,127,127,129,127,121,127,130,127,0
4972,130,129,127,127,119,128,128,124,0
4975,132,126,125,129,135,126,131,129,0
4980,122,126,124,129,133,127,124,126,0
4983,134,129,128,128,120,127,132,127,0
4991,133,129,128,127,125,129,124,125,0
4994,126,126,128,128,122,128,125,126,0
4998,124,126,128,128,123,127,130,128,0
5001,128,129,128,127,129,127,127,128,0
5006,133,129,128,127,129,128,126,128,0
5009,122,127,127,128,128,128,122,126,0
5012,125,127,129,129,140,128,126,126,0
5016,125,128,128,128,129,127,127,128,0
5019,133,129,129,128,134,127,129,129,0
5022,126,128,128,126,131,128,128,127,0
5025,125,127,128,128,124,128,128,128,0
5031,133,128,129,128,124,128,129,128,0
5035,129,129,128,128,138,128,129,128,0
5041,130,128,127,128,123,127,126,130,0
5044,129,126,123,129,136,125,128,129,0
5047,124,127,129,127,125,128,130,128,0
5050,133,129,128,127,129,127,131,128,0
5053,133,127,128,126,121,128,126,125,0
5057,131,124,127,127,121,128,131,126,0
5060,129,127,128,127,124,128,127,127,0
5063,126,129,127,127,128,128,127,129,0
5066,129,128,128,128,130,128,123,126,0
5070,124,127,125,129,142,127,125,128,0
5073,131,129,129,126,132,128,124,126,0
5077,132,129,129,128,131,127,128,127,0
5081,128,128,128,128,134,128,127,125,0
5086,124,127,129,126,124,128,124,127,0
5089,121,127,128,126,126,127,126,128,0
5092,125,128,127,128,131,127,128,129,0
5094,130,127,128,127,125,127,124,126,0
5098,123,126,123,128,137,125,127,132,0
5102,125,126,125,128,122,127,129,126,0
5106,134,128,130,126,123,128,127,127,0
5109,129,128,127,126,122,128,126,125,0
5112,124,127,127,128,127,128,127,126,0
5116,127,128,127,128,124,129,125,126,0
5121,123,129,127,128,123,128,127,127,0
5125,123,128,126,129,132,128,124,128,0
5128,133,127,129,127,124,128,125,130,0
5132,119,126,126,130,139,126,130,130,0
5137,132,130,128,127,122,128,127,128,0
5144,129,129,127,128,135,129,125,127,0
5150,133,125,129,126,124,129,126,126,0
5153,121,127,127,126,123,128,128,128,0
5157,129,129,128,128,124,128,129,128,0
5160,126,127,126,127,122,127,129,127,0
5163,125,126,127,126,124,127,129,128,0
5167,122,126,127,128,126,128,131,128,0
5171,130,128,128,128,124,127,128,127,0
5175,134,127,128,129,139,124,133,131,0
5183,129,126,124,129,136,125,128,129,0
5188,123,126,129,125,119,127,133,128,0
5192,130,129,128,125,123,128,127,127,0
5195,130,127,128,127,122,128,126,126,0
5199,129,127,127,128,121,127,129,127,0
5202,131,125,128,128,127,128,128,126,0
5206,128,127,128,126,125,128,124,126,0
5209,124,129,130,128,128,128,126,126,0
5212,130,127,128,128,129,128,124,126,0
5215,129,126,128,128,130,128,124,128,0
5219,132,129,129,128,126,128,124,127,0
5222,131,128,129,127,127,128,124,126,0
5225,131,127,128,126,135,128,128,126,0
5229,131,127,127,128,128,128,133,129,0
5231,118,126,127,127,126,127,130,128,0
5235,129,128,128,129,126,128,128,126,0
5237,129,127,126,130,135,124,133,131,0
5240,128,125,125,128,135,125,127,131,0
5244,124,127,125,128,123,129,131,129,0
5252,130,129,129,125,122,128,129,128,0
5258,129,128,128,128,125,128,128,127,0
5261,133,125,128,128,122,128,127,126,0
5264,134,128,128,126,121,127,131,127,0
5268,132,129,129,126,128,127,125,127,0
5271,131,127,130,126,138,128,130,127,0
5274,130,127,128,128,124,129,125,128,0
5277,126,128,128,127,126,127,128,128,0
5280,128,128,127,126,133,127,126,128,0
5282,123,128,127,127,137,126,128,129,0
5285,118,127,130,129,129,128,126,125,0
5289,127,127,128,128,127,128,129,126,0
5292,129,129,129,127,125,127,127,128,0
5298,117,128,129,129,139,128,125,128,0
5302,125,126,126,130,141,127,126,131,0
5305,124,128,128,127,123,127,132,128,0
5308,132,129,128,128,124,127,131,129,0
5311,128,129,128,128,126,127,128,127,0
5314,127,126,128,128,132,128,125,129,0
5318,123,127,127,128,125,127,129,128,0
5321,127,129,129,128,121,127,126,127,0
5326,124,128,128,126,125,128,123,125,0
5329,123,125,126,128,134,124,128,131,0
5332,122,127,124,128,126,128,126,127,0
5336,129,128,127,127,123,128,127,126,0
5339,130,129,127,127,122,127,131,127,0
5342,130,127,128,126,130,127,131,127,0
5345,133,125,128,128,128,128,128,127,0
5350,124,129,128,128,131,128,125,125,0
5357,123,129,128,126,120,128,131,127,0
5360,127,127,128,128,131,128,130,127,0
5364,132,126,128,127,122,128,129,128,0
5367,124,129,128,128,128,128,129,128,0
5370,128,128,128,128,127,129,128,131,0
5373,128,126,123,130,135,126,128,130,0
5376,122,126,125,129,137,127,126,126,0
5379,129,127,128,127,125,129,132,128,0
5383,132,128,128,128,125,130,129,127,0
5386,127,127,128,127,133,129,130,127,0
5389,129,126,128,126,123,128,133,128,0
5392,131,130,129,126,123,128,125,128,0
5395,129,129,128,128,129,127,130,129,0
5399,128,127,127,128,129,127,130,129,0
5402,127,127,128,128,121,128,124,129,0
5406,133,129,128,128,130,128,128,127,0
5409,128,128,127,127,130,127,128,128,0
5412,124,126,128,128,128,127,126,127,0
5415,118,126,125,130,139,125,128,130,0
5418,121,129,128,127,122,127,126,128,0
5421,130,129,129,127,120,129,125,126,0
5425,134,127,128,129,127,128,124,127,0
5428,133,127,129,128,123,128,124,127,0
5431,131,129,128,127,123,127,127,126,0
5434,129,128,129,126,124,128,124,129,0
5437,122,126,127,126,138,128,126,126,0
5441,126,127,129,128,124,127,127,127,0
5445,131,129,128,127,130,127,125,127,0
5450,128,130,127,127,129,128,130,127,0
5454,128,125,126,130,136,125,130,130,0
5457,125,126,124,129,136,126,128,130,0
5460,122,127,128,127,123,128,131,127,0
5463,137,129,128,126,122,128,128,127,0
5468,133,126,128,128,127,129,126,127,0
5471,128,126,127,128,124,128,127,125,0
5475,125,128,128,126,120,127,129,126,0
5481,130,130,128,128,123,128,127,126,0
5486,129,128,127,128,122,128,129,127,0
5489,122,127,129,129,136,128,126,128,0
5492,123,128,128,128,125,128,126,129,0
5496,119,128,127,126,129,127,129,127,0
5498,127,127,128,129,142,126,128,131,0
5501,125,126,125,130,139,126,130,131,0
5506,127,128,127,128,120,128,129,127,0
5509,134,129,128,128,122,128,128,127,0
5513,124,127,128,129,129,128,126,126,0
5516,127,128,128,127,126,128,127,126,0
5519,121,128,128,128,123,128,127,127,0
5523,128,127,130,129,123,128,125,128,0
5525,125,128,127,126,129,128,126,127,0
5528,122,125,125,129,138,126,129,131,0
5531,122,127,125,129,138,129,132,128,0
5534,128,129,129,128,123,128,128,127,0
5538,133,128,129,126,121,128,127,126,0
5541,128,126,127,127,123,128,126,126,0
5550,129,125,130,128,123,127,128,127,0
5555,123,128,127,127,127,127,125,128,0
5560,125,129,126,126,121,127,130,126,0
5565,120,127,127,127,124,127,125,129,0
5569,123,127,126,129,126,128,128,127,0
5572,129,129,128,126,121,127,131,129,0
5575,127,128,128,126,127,128,123,129,0
5579,120,127,127,128,128,128,130,127,0
5584,130,126,126,128,138,126,125,127,0
5588,133,129,127,126,123,128,127,126,0
5591,130,128,127,126,124,128,127,127,0
5596,125,127,126,129,135,125,131,130,0
5601,127,126,125,129,129,128,126,126,0
5605,129,128,129,128,122,129,128,125,0
5609,131,126,130,128,123,128,127,126,0
5612,132,127,127,128,123,128,130,127,0
5615,126,126,127,128,122,128,125,128,0
5619,129,130,127,127,127,127,126,127,0
5623,131,128,127,127,128,128,126,128,0
5627,126,127,127,128,130,128,127,127,0
5631,121,127,127,126,126,128,129,127,0
5636,129,129,128,128,127,128,126,127,0
5640,127,126,128,128,127,128,124,128,0
5644,128,126,127,126,124,128,129,127,0
5647,129,126,127,128,124,128,125,127,0
5650,125,129,126,128,123,127,126,128,0
5653,127,128,127,128,140,126,130,131,0
5657,126,127,126,128,135,126,129,131,0
5660,118,126,125,128,135,126,129,130,0
5671,127,127,130,125,120,127,132,126,0
5674,133,129,127,125,121,128,132,126,0
5678,129,127,127,127,122,127,131,127,0
5682,130,127,128,128,123,128,131,128,0
5685,133,129,128,128,126,128,126,126,0
5689,128,128,127,126,128,127,123,128,0
5692,131,127,128,128,129,128,124,129,0
5695,128,125,127,129,142,126,130,129,0
5706,133,129,129,128,122,128,127,127,0
5710,127,129,126,129,124,127,129,127,0
5715,119,127,128,127,121,128,126,127,0
5719,124,127,127,125,123,128,130,127,0
5722,127,128,129,129,137,127,128,128,0
5725,118,127,128,127,120,128,128,126,0
5729,125,125,126,129,137,127,127,129,0
5732,121,127,124,127,135,126,127,130,0
5735,125,127,128,128,121,127,127,127,0
5739,129,130,128,128,126,128,127,126,0
5742,129,127,126,128,125,128,128,126,0
5745,129,125,129,128,123,128,129,125,0
5749,127,128,127,128,124,128,127,126,0
5752,125,129,127,128,123,127,130,127,0
5755,133,128,128,126,127,128,127,127,0
5759,132,126,128,127,122,128,129,127,0
5762,130,129,130,127,130,128,125,128,0
5765,128,129,127,129,134,127,123,128,0
5769,128,128,127,129,131,128,125,127,0
5779,125,127,128,129,140,125,131,132,0
5785,126,125,125,129,140,126,127,128,0
5791,134,129,127,127,123,127,127,126,0
5800,129,128,126,127,123,128,130,126,0
5803,128,128,127,126,126,129,124,127,0
5807,125,128,127,126,124,127,130,128,0
5811,132,129,129,128,126,128,126,127,0
5814,132,128,127,129,129,128,124,125,0
5818,127,126,127,126,126,128,125,126,0
5821,132,127,129,127,139,127,127,127,0
5825,133,129,130,128,126,127,128,127,0
5828,129,128,128,127,126,128,125,127,0
5832,131,124,125,129,139,125,129,131,0
5835,123,126,125,129,138,127,125,126,0
5838,131,129,128,128,125,128,128,127,0
5841,129,128,128,126,124,127,130,126,0
5845,133,125,128,128,126,129,125,126,0
5848,134,125,129,128,124,128,128,126,0
5851,128,129,127,128,128,127,128,127,0
5855,122,129,127,126,121,127,132,127,0
5858,130,127,128,128,128,128,129,127,0
5865,130,127,126,128,136,128,125,125,0
5869,125,130,130,127,129,127,129,127,0
5873,132,128,129,128,124,128,128,125,0
5876,126,127,129,128,125,128,123,125,0
5880,125,124,126,129,139,126,131,131,0
5885,132,126,124,129,136,127,128,127,0
5888,126,128,127,128,129,128,127,127,0
5892,132,126,127,128,123,128,128,128,0
5900,132,125,128,128,133,128,127,128,0
5904,132,129,128,126,126,128,128,127,0
5907,128,128,128,128,126,127,128,125,0
5910,123,128,127,128,139,129,125,126,0
5913,121,126,125,129,135,125,130,131,0
5917,125,128,128,127,121,127,129,127,0
5920,131,129,129,128,124,128,128,127,0
5923,126,128,126,128,122,128,128,127,0
5935,132,127,128,128,124,128,127,127,0
5939,124,127,128,128,126,128,125,127,0
5942,125,129,127,128,140,128,126,126,0
5946,131,128,128,127,139,127,131,129,0
5949,123,126,124,128,137,126,127,130,0
5953,124,127,128,127,123,127,130,127,0
5956,132,128,131,127,122,128,128,126,0
5959,128,129,127,125,130,128,129,128,0
5962,124,127,127,128,121,128,131,127,0
5966,132,128,128,127,125,128,126,126,0
5969,125,129,128,128,124,127,127,127,0
5975,129,128,127,127,124,129,123,126,0
5978,129,126,128,127,123,127,127,127,0
5981,129,127,129,128,123,128,127,127,0
5984,127,129,127,129,141,126,126,128,0
5987,126,127,128,128,136,127,123,128,0
5990,123,126,129,128,126,128,127,127,0
5993,123,129,126,128,123,128,128,127,0
5996,131,129,128,128,135,129,124,128,0
6048,130,128,126,128,141,127,129,130,0
6063,125,126,126,130,139,126,127,129,0
6073,126,127,129,128,121,127,129,127,0
6079,130,129,129,126,121,127,131,128,0
6084,132,128,129,128,129,128,123,127,0
6116,131,127,128,128,124,128,128,128,0
6126,126,127,127,126,126,127,128,127,0
6135,128,128,128,128,140,127,124,128,0
6141,130,128,128,127,125,127,125,131,0
6146,122,126,124,128,135,125,128,130,0
6150,123,126,125,128,124,128,128,126,0
6187,132,129,129,128,119,127,132,127,0
6197,132,128,128,126,122,127,130,126,0
6205,128,128,127,126,126,127,130,127,0
6212,128,127,128,126,124,128,126,127,0
6217,127,131,127,128,134,128,125,127,0
6252,131,126,127,128,124,127,128,127,0
6262,126,126,128,129,126,128,123,127,0
6270,126,127,127,126,129,128,128,127,0
6276,124,129,128,127,122,127,127,128,0
6280,129,128,127,128,126,128,126,128,0
6284,128,128,129,129,140,125,132,131,0
6288,128,126,124,129,137,126,128,131,0
6292,123,126,128,126,119,127,128,126,0
6295,125,127,127,129,126,128,128,126,0
6299,134,125,127,128,127,129,126,127,0
6302,129,126,127,126,123,128,128,127,0
6306,132,129,128,128,124,128,132,127,0
6311,129,128,128,128,132,127,130,127,0
6314,128,127,127,126,124,127,130,128,0
6318,121,126,129,128,133,128,125,128,0
6321,130,129,127,128,128,127,123,127,0
6324,129,129,127,128,132,128,124,128,0
6328,130,126,127,128,125,127,124,127,0
6331,130,125,128,126,126,128,123,126,0
6334,126,128,127,126,127,127,131,128,0
6337,119,128,127,127,127,128,128,127,0
6341,119,127,126,129,135,124,132,131,0
6343,130,126,124,129,137,126,127,129,0
6348,124,127,129,128,121,128,129,126,0
6352,133,129,127,128,126,128,126,125,0
6355,129,127,126,129,122,128,128,126,0
6358,123,127,128,128,122,128,130,128,0
6361,123,130,128,128,126,127,131,128,0
6363,125,129,129,129,123,128,126,128,0
6368,126,127,127,126,128,128,124,126,0
6372,132,127,128,126,124,128,125,127,0
6378,131,128,127,126,121,128,127,127,0
6381,124,128,127,128,126,128,128,127,0
6383,124,127,127,126,124,128,127,127,0
6391,123,127,127,128,139,127,128,130,0
6394,126,127,126,128,137,127,128,126,0
6398,130,129,129,126,121,127,127,126,0
6408,128,126,129,127,121,129,127,129,0
6411,123,126,125,129,135,127,128,130,0
6417,129,128,128,128,123,128,129,127,0
6453,124,130,129,127,120,127,132,126,0
6461,132,128,129,126,122,128,125,126,0
6470,127,127,128,126,124,128,126,127,0
6476,132,128,130,128,126,128,124,128,0
6481,128,129,128,127,136,127,126,126,0
6523,125,128,127,128,124,127,130,127,0
6533,123,126,128,128,121,128,128,127,0
6541,127,126,128,127,129,127,130,128,0
6549,133,129,129,128,125,128,126,129,0
6555,121,127,127,126,123,128,128,127,0
6559,119,126,124,128,136,125,130,130,0
6563,124,126,125,128,137,128,128,126,0
6567,127,129,127,128,125,127,127,126,0
6571,126,129,128,127,121,128,129,125,0
6574,122,127,128,126,121,128,128,125,0
6578,133,127,130,128,124,127,129,128,0
6581,131,129,127,128,126,128,126,129,0
6584,131,129,128,127,120,128,126,128,0
6588,118,126,126,129,137,129,124,129,0
6591,125,126,126,126,121,128,127,127,0
6595,135,130,128,126,120,128,129,127,0
6598,128,129,126,126,128,127,129,128,0
6601,125,126,128,128,135,127,130,127,0
6605,118,127,127,126,126,127,127,129,0
6608,133,129,129,128,137,127,130,128,0
6615,127,128,127,128,122,128,127,128,0
6618,119,128,128,128,139,127,126,129,0
6621,122,126,125,129,139,126,127,127,0
6625,132,130,129,126,121,128,129,127,0
6628,131,128,128,127,122,128,132,127,0
6631,127,127,128,128,126,129,122,126,0
6635,130,128,128,126,126,128,126,126,0
6637,128,129,127,127,128,127,128,127,0
6640,133,125,126,129,136,128,127,126,0
6643,126,126,124,129,137,124,128,130,0
6646,123,126,126,129,138,128,127,126,0
6649,132,129,128,127,121,128,131,128,0
6656,132,129,128,126,125,128,128,126,0
6660,126,127,128,128,126,128,125,125,0
6663,127,127,127,128,126,128,130,128,0
6666,120,128,128,127,127,128,123,128,0
6670,129,129,127,129,127,129,124,128,0
6673,131,128,129,129,120,127,128,126,0
6677,133,127,128,128,123,128,125,127,0
6680,130,127,127,128,125,128,128,128,0
6724,125,129,128,127,125,128,124,128,0
6734,129,128,129,128,130,127,130,129,0
6751,124,126,125,129,138,127,130,130,0
6759,125,127,125,126,117,127,128,126,0
6768,132,128,128,126,121,127,127,127,0
6791,130,129,128,128,126,128,125,127,0
6799,127,126,128,126,130,128,128,126,0
6811,129,127,129,126,122,128,128,127,0
6820,130,129,128,128,132,128,124,129,0
6827,120,126,125,130,140,126,126,129,0
6833,123,126,126,129,133,128,131,127,0
6837,133,128,128,126,120,127,129,127,0
6840,129,129,126,126,125,128,124,127,0
6844,128,125,128,128,122,127,124,126,0
6847,127,127,129,128,126,127,127,130,0
6851,122,127,127,128,120,128,131,128,0
6854,128,129,128,128,126,129,125,128,0
6858,124,128,126,128,122,127,130,127,0
6861,130,127,128,126,122,128,126,127,0
6865,128,128,129,128,127,128,124,128,0
6868,132,129,128,128,130,127,129,129,0
6871,122,127,127,127,127,127,128,130,0
6875,125,126,123,128,135,126,127,129,0
6878,126,126,125,128,123,128,128,126,0
6881,131,127,129,128,121,128,128,126,0
6884,127,128,127,125,129,128,128,126,0
6887,124,125,127,127,126,128,131,127,0
6890,133,128,128,126,125,128,125,127,0
6892,127,130,127,126,121,128,129,128,0
6895,127,128,128,128,125,128,124,128,0
6899,124,127,127,126,131,128,128,129,0
6902,125,126,127,126,125,128,127,129,0
6910,132,128,129,126,125,128,124,126,0
6907,127,128,128,125,121,128,128,127,0
6915,123,127,127,128,124,128,126,129,0
6920,128,127,127,126,131,129,129,127,0
6925,126,129,128,127,128,127,129,128,0
6929,128,128,128,128,132,128,127,128,0
6934,119,126,126,130,136,126,127,130,0
6937,129,126,125,129,137,126,127,127,0
6940,134,129,128,126,122,128,131,127,0
6943,133,129,130,126,119,128,127,126,0
6948,133,127,130,128,128,128,127,126,0
6952,123,126,130,128,125,128,125,126,0
6955,125,129,127,126,121,127,130,128,0
6958,127,129,128,128,133,127,126,128,0
6961,127,128,129,129,140,127,129,130,0
6964,122,126,125,129,136,126,130,130,0
6967,125,129,128,128,122,128,130,126,0
6970,132,129,128,126,121,128,127,126,0
6973,133,128,130,129,126,128,125,126,0
6976,126,126,128,128,134,128,123,126,0
6979,127,128,128,127,133,128,130,129,0
6982,128,129,128,127,138,128,128,126,0
6986,130,127,128,128,137,128,127,127,0
6989,121,124,126,129,128,128,124,128,0
6992,130,129,129,128,121,128,127,127,0
6996,130,129,128,126,125,127,123,127,0
7002,123,127,128,128,137,128,126,127,0
7005,130,127,129,129,140,125,131,131,0
7008,123,127,125,129,137,128,128,127,0
7011,132,128,130,126,124,128,127,126,0
7014,134,128,129,128,122,128,129,126,0
7017,130,126,127,128,126,128,128,128,0
7024,122,127,127,128,127,128,125,126,0
7028,130,128,126,128,124,127,129,128,0
7032,120,128,127,128,130,128,125,127,0
7037,123,127,127,128,125,127,127,129,0
7046,120,127,127,126,125,127,129,128,0
7049,122,129,129,127,127,127,123,127,0
7057,125,127,127,128,139,126,130,130,0
7063,126,126,123,129,136,126,128,129,0
7067,128,128,128,125,127,127,130,128,0
7069,129,128,128,127,124,128,125,128,0
7072,133,126,127,128,121,128,125,126,0
7076,127,127,127,128,124,128,131,126,0
7080,127,128,127,126,128,127,128,127,0
7083,130,130,128,126,124,128,127,127,0
7086,125,128,128,127,127,128,127,128,0
7090,118,126,126,129,138,127,122,127,0
7093,127,128,128,126,124,127,129,127,0
7096,130,129,127,128,125,127,123,126,0
7099,128,127,127,126,126,128,127,127,0
7102,130,129,126,129,137,127,128,130,0
7104,120,126,128,126,122,128,128,128,0
7108,134,129,129,127,124,128,124,127,0
7111,132,128,129,126,128,128,124,126,0
7114,121,127,128,129,126,127,131,130,0
7119,124,126,126,129,128,128,124,127,0
7122,133,129,128,128,123,127,127,126,0
7125,124,128,129,128,126,128,126,127,0
7128,123,127,128,128,127,128,128,127,0
7131,125,124,130,129,140,126,128,133,0
7136,128,128,125,128,137,126,131,131,0
7140,123,129,127,128,118,128,126,126,0
7143,132,127,128,126,122,129,127,127,0
7149,132,127,130,128,137,129,126,126,0
7153,130,129,129,126,122,127,128,126,0
7156,131,128,128,128,122,128,128,127,0
7159,131,126,128,128,129,128,129,127,0
7162,118,126,125,130,137,126,126,128,0
7165,134,130,128,126,122,128,124,127,0
7168,133,129,128,126,121,128,126,128,0
7172,131,126,125,130,138,127,127,129,0
7175,122,125,125,129,135,126,131,131,0
7178,122,129,130,125,121,128,127,126,0
7181,129,128,127,128,121,128,131,127,0
7184,126,126,128,125,120,128,129,128,0
7188,128,127,127,125,121,128,127,126,0
7191,127,128,128,126,124,128,127,127,0
7194,126,128,126,128,127,127,127,126,0
7198,127,126,128,127,125,127,127,127,0
7202,124,124,128,128,132,127,123,128,0
7205,126,129,128,126,124,127,129,129,0
7208,128,129,128,128,123,128,123,128,0
7211,129,127,128,127,122,128,123,130,0
7214,123,125,124,130,137,125,126,131,0
7218,123,127,126,126,120,127,127,126,0
7222,131,126,128,128,121,128,128,126,0
7227,123,127,127,129,121,128,126,126,0
7230,124,127,127,127,123,127,132,128,0
7233,132,128,128,128,125,128,130,128,0
7237,129,129,129,128,127,128,125,126,0
7240,132,128,127,128,128,129,124,126,0
7243,127,124,126,127,122,128,132,128,0
7246,121,128,128,128,125,127,129,128,0
7250,130,129,129,126,122,127,127,127,0
7256,134,127,129,127,123,127,124,127,0
7261,132,126,128,128,133,127,126,130,0
7265,121,127,124,128,137,127,126,126,0
7268,131,129,128,127,121,127,128,126,0
7271,132,126,128,128,125,128,126,127,0
7274,132,127,126,129,134,128,131,128,0
7278,126,128,127,128,121,127,133,127,0
7282,122,129,127,128,124,127,129,128,0
7285,127,127,128,126,127,128,128,128,0
7288,120,126,125,129,136,127,125,129,0
7291,121,127,129,127,121,127,133,128,0
7293,132,129,128,128,122,128,126,126,0
7297,128,128,128,128,126,128,125,127,0
7300,122,127,127,128,124,127,129,129,0
7304,124,126,123,129,137,127,125,126,0
7308,134,130,127,128,118,128,131,127,0
7311,132,129,128,128,120,127,127,125,0
7314,128,127,128,129,136,126,128,126,0
7318,118,128,129,128,123,128,128,127,0
7321,131,127,128,128,124,128,124,127,0
7324,133,128,126,126,121,127,127,128,0
7329,125,127,128,128,126,128,125,127,0
7332,131,127,128,126,126,128,127,128,0
7335,129,128,128,127,133,127,130,127,0
7338,125,127,125,129,127,128,123,127,0
7342,129,127,128,128,129,128,124,128,0
7345,125,126,123,129,137,126,127,129,0
7351,130,129,127,126,120,127,132,127,0
7359,134,127,129,128,128,128,128,127,0
7363,122,127,127,129,124,127,128,128,0
7368,129,125,130,128,132,128,125,128,0
7374,128,129,129,128,128,128,126,128,0
7379,132,129,128,128,131,128,124,127,0
7382,130,125,129,126,124,128,131,128,0
7386,128,124,126,130,141,126,124,126,0
7389,130,130,128,126,124,127,128,127,0
7392,122,128,130,128,125,128,123,127,0
7396,123,127,128,129,138,126,127,130,0
7399,120,126,125,129,136,127,124,126,0
7402,135,128,127,125,122,128,131,129,0
7404,132,128,128,128,135,128,128,126,0
7408,129,127,127,128,123,127,128,127,0
7412,120,126,127,128,122,128,130,127,0
7416,123,128,128,126,123,127,129,127,0
7419,129,129,127,126,124,128,130,128,0
7422,125,127,126,129,141,125,129,131,0
7426,125,125,123,129,138,126,126,127,0
7429,133,129,127,128,120,127,129,128,0
7432,131,130,129,128,122,127,130,127,0
7436,129,128,127,128,123,127,127,127,0
7438,124,126,127,126,121,127,130,128,0
7441,127,128,127,126,124,128,129,128,0
7443,126,129,128,128,122,128,126,128,0
7446,129,127,128,128,127,128,130,127,0
7449,124,127,127,126,123,128,126,126,0
7451,119,128,127,126,123,127,127,128,0
7454,122,129,127,128,133,127,130,130,0
7458,125,127,127,128,127,128,123,127,0
7460,133,124,127,128,121,128,132,127,0
7465,123,128,128,127,122,127,130,129,0
7471,120,129,127,126,124,127,132,128,0
7475,121,127,127,127,124,127,130,129,0
7478,125,126,126,129,138,125,130,130,0
7481,124,127,126,127,117,127,131,126,0
7483,130,129,129,128,121,127,131,126,0
7486,131,128,127,125,125,128,130,126,0
7489,130,127,128,128,124,128,126,126,0
7492,129,128,130,128,124,128,127,127,0
7495,131,129,129,126,123,127,131,128,0
7498,127,128,128,128,136,128,129,130,0
7501,126,126,125,129,139,127,127,130,0
7504,124,125,128,126,122,128,127,126,0
7507,133,129,128,126,123,128,130,128,0
7511,123,128,127,126,123,127,129,126,0
7515,122,126,128,128,123,128,126,126,0
7520,129,125,128,126,124,127,128,127,0
7523,129,129,128,126,124,127,128,128,0
7527,131,128,129,128,128,128,124,129,0
7530,127,126,127,129,140,127,126,131,0
7533,119,126,127,129,138,127,128,127,0
7536,132,127,129,128,128,127,125,126,0
7540,130,129,129,128,127,127,128,126,0
7542,128,126,127,128,124,128,123,130,0
7546,117,126,127,129,135,126,129,131,0
7549,123,129,129,126,121,128,128,126,0
7552,133,129,127,128,122,128,127,128,0
7554,127,127,129,128,129,128,124,126,0
7558,126,127,129,128,127,128,127,127,0
7560,128,129,128,127,128,128,129,129,0
7565,128,128,128,128,127,128,125,126,0
7570,124,127,128,128,121,128,123,127,0
7576,119,126,123,130,139,125,127,131,0
7580,124,128,127,128,122,128,128,126,0
7583,134,128,127,128,121,128,130,126,0
7586,132,127,128,128,129,128,123,126,0
7589,126,127,127,129,130,128,124,126,0
7592,123,129,127,126,128,127,130,128,0
7595,127,128,127,128,126,127,125,127,0
7598,128,125,126,130,139,126,125,130,0
7602,123,126,125,128,135,126,131,130,0
7606,125,129,129,125,117,128,128,127,0
7609,132,129,131,128,127,128,127,126,0
7613,133,127,128,126,119,128,125,126,0
7618,124,124,129,126,125,128,127,127,0
7622,123,129,128,128,128,128,122,128,0
7626,132,129,128,126,125,128,127,127,0
7634,130,127,128,127,132,128,123,129,0
7638,119,126,125,129,137,127,129,130,0
7642,121,129,130,127,121,127,129,127,0
7646,130,130,128,127,122,128,127,126,0
7649,128,128,130,126,130,129,125,127,0
7659,130,127,127,126,121,128,131,127,0
7663,132,128,128,126,137,128,126,127,0
7667,131,129,130,129,133,127,123,127,0
7670,126,127,127,128,137,128,125,129,0
7673,120,126,125,130,139,125,129,132,0
7676,123,127,125,129,125,128,127,126,0
7680,127,129,127,128,128,129,128,128,0
7684,122,127,127,126,130,127,131,127,0
7689,136,127,129,128,126,128,127,127,0
7693,133,128,128,128,123,127,127,127,0
7696,132,129,130,128,133,128,126,126,0
7700,123,127,128,128,127,127,128,127,0
7703,122,126,127,129,136,128,131,128,0
7706,123,127,127,128,123,127,128,128,0
7709,124,129,128,128,127,127,129,127,0
7713,125,128,127,128,130,128,124,127,0
7717,122,127,128,128,129,128,124,128,0
7720,126,127,128,126,124,128,130,128,0
7726,130,129,128,128,125,129,123,129,0
7730,122,127,123,129,135,126,130,130,0
7734,126,126,124,129,137,126,128,130,0
7738,125,126,126,128,119,128,128,126,0
7741,130,127,129,128,120,127,131,127,0
7744,126,128,128,128,128,128,127,125,0
7749,128,127,127,125,128,130,130,125,0
7752,129,128,128,126,120,127,128,126,0
7756,129,129,129,126,123,128,124,129,0
7759,130,128,128,128,124,128,127,127,0
7762,124,127,128,129,127,127,128,128,0
7765,127,127,127,128,134,128,124,128,0
7769,126,129,127,126,126,128,130,129,0
7772,118,128,128,129,129,128,122,126,0
7776,127,126,128,129,135,128,127,126,0
7779,121,126,126,129,138,127,129,127,0
7782,134,129,128,127,122,128,122,126,0
7784,126,129,128,128,131,128,122,126,0
7788,131,127,128,127,126,127,121,127,0
7792,123,126,125,129,137,126,127,129,0
7797,127,129,128,127,120,127,128,127,0
7801,131,128,129,127,125,129,123,126,0
7805,123,127,128,128,123,128,125,126,0
7808,125,124,126,126,127,128,127,127,0
7811,130,129,127,127,122,128,127,127,0
7813,130,128,129,126,126,128,124,129,0
7816,119,126,126,128,122,127,124,131,0
7819,122,126,125,129,135,127,128,129,0
7822,128,129,125,129,133,126,131,129,0
7825,123,129,128,127,117,128,126,126,0
7828,129,127,129,127,118,128,127,126,0
7831,129,127,127,127,121,128,126,125,0
7834,123,128,127,128,126,128,128,128,0
7837,128,128,129,128,129,128,127,129,0
7840,126,125,128,128,129,127,128,127,0
7843,127,127,127,128,125,128,128,126,0
7851,127,126,128,128,124,127,129,128,0
7848,125,128,129,128,126,129,129,127,0
7855,120,127,129,128,120,128,126,126,0
7859,127,125,126,130,136,125,128,130,0
7862,124,127,125,129,139,127,129,128,0
7872,133,129,127,126,123,127,129,128,0
7875,132,128,128,126,124,128,128,128,0
7879,131,127,128,126,128,129,128,127,0
7882,127,127,129,126,124,128,129,127,0
7886,130,129,127,128,123,127,126,126,0
7889,128,127,129,129,129,128,129,127,0
7893,128,126,128,128,132,128,128,128,0
7896,131,128,129,128,130,128,129,127,0
7900,127,128,126,128,128,128,129,127,0
7906,127,126,127,127,124,129,126,131,0
7910,128,125,124,128,136,126,129,130,0
7913,123,127,125,128,123,128,130,126,0
7916,128,129,127,127,126,128,129,127,0
7919,132,128,127,127,124,127,127,127,0
7921,128,127,127,127,126,128,129,127,0
7924,123,127,127,126,121,127,128,127,0
7928,128,129,127,128,130,128,128,127,0
7931,127,128,127,127,125,129,128,130,0
7935,122,126,126,126,121,129,128,126,0
7938,133,128,128,126,122,128,129,128,0
7941,128,129,128,127,135,127,128,127,0
7944,129,128,128,128,135,127,129,128,0
7948,127,127,126,129,134,128,129,127,0
7951,129,127,129,128,125,128,129,127,0
7960,130,129,127,128,126,128,130,127,0
7964,124,127,128,128,139,130,125,126,0
7967,128,127,128,128,132,128,129,128,0
7970,121,126,126,129,137,125,130,131,0
7974,126,128,126,127,122,127,130,128,0
7977,130,128,128,128,131,128,130,127,0
7980,127,126,128,127,126,126,125,130,0
7983,124,126,126,128,136,125,133,130,0
7987,121,129,129,125,121,127,130,126,0
7990,129,129,129,126,120,128,127,125,0
7993,130,127,129,126,120,128,129,126,0
7996,128,128,129,126,122,128,128,126,0
8001,129,129,127,126,123,127,131,128,0
8006,130,128,127,127,125,129,128,129,0
8014,123,126,126,129,139,126,130,131,0
8018,123,125,124,129,138,127,129,127,0
8022,131,130,128,125,121,128,127,127,0
8025,128,129,128,126,125,129,124,128,0
8028,118,125,130,128,127,129,124,128,0
8031,117,126,129,127,123,128,130,128,0
8035,129,129,128,127,135,126,129,126,0
8038,130,129,129,128,130,128,130,128,0
8042,126,128,128,128,131,128,128,127,0
8045,131,126,128,126,139,128,126,127,0
8049,128,129,127,128,124,127,130,127,0
8052,127,130,127,128,124,128,130,127,0
8055,128,127,128,129,134,127,124,125,0
8058,129,128,128,128,121,128,124,125,0
8062,126,126,127,128,122,127,131,129,0
8065,128,128,127,128,130,127,129,127,0
8068,124,126,122,130,139,124,128,130,0
8072,123,125,125,129,136,127,131,130,0
8075,121,129,128,127,120,128,129,127,0
8078,126,128,129,127,120,129,129,128,0
8081,125,128,128,128,124,127,128,125,0
8084,132,126,127,128,121,128,127,126,0
8087,133,129,128,126,124,128,128,127,0
8090,125,129,127,126,127,127,130,128,0
8093,132,128,128,128,136,127,131,126,0
8097,120,124,128,128,132,128,123,125,0
8101,129,129,128,126,121,127,129,127,0
8104,126,129,128,127,124,127,129,127,0
8109,129,128,129,129,131,128,127,125,0
8115,123,127,126,130,138,126,127,131,0
8120,124,127,125,129,128,128,131,127,0
8125,132,129,128,126,120,128,132,127,0
8128,132,128,127,126,123,128,125,127,0
8132,128,125,129,129,133,128,124,128,0
8135,131,126,128,127,135,127,128,128,0
8138,128,129,127,126,126,127,129,128,0
8142,120,128,129,129,124,127,128,130,0
8153,123,126,125,129,139,126,130,130,0
8157,123,127,130,128,123,128,128,127,0
8160,134,130,130,126,122,127,126,126,0
8164,128,128,127,128,122,128,126,127,0
8168,128,124,128,129,129,128,123,127,0
8171,127,127,127,129,128,128,126,126,0
8175,126,128,127,126,123,128,129,127,0
8178,129,128,128,129,126,127,124,130,0
8183,121,126,125,129,139,126,126,129,0
8188,124,126,127,126,125,127,131,128,0
8191,128,128,127,126,123,127,132,128,0
8194,128,128,128,127,137,127,127,126,0
8197,127,127,128,126,123,127,130,126,0
8200,128,127,128,128,122,128,126,126,0
8204,126,129,130,128,128,127,127,127,0
8207,126,125,126,128,126,128,127,126,0
8211,124,125,127,129,140,127,127,130,0
8214,122,126,126,129,137,125,131,130,0
8217,131,128,129,127,118,127,128,126,0
8220,133,129,127,128,126,128,127,126,0
8227,133,127,127,128,121,128,130,126,0
8233,128,127,128,128,125,128,131,127,0
8237,130,129,128,128,123,128,127,126,0
8241,122,128,129,128,125,128,130,127,0
8247,122,126,128,126,132,127,126,129,0
8250,121,126,124,129,138,126,128,127,0
8253,133,128,129,128,125,128,131,127,0
8258,128,128,129,128,125,127,130,125,0
8263,118,128,128,128,123,127,130,127,0
8267,132,127,127,128,124,129,123,126,0
8271,125,129,130,127,130,127,123,128,0
8274,131,129,127,128,134,127,129,127,0
8278,131,125,127,129,138,128,130,128,0
8281,125,126,128,127,130,128,127,127,0
8284,123,129,127,128,127,129,123,128,0
8288,134,129,127,127,127,128,128,128,0
8291,127,127,128,126,135,128,127,130,0
8295,125,126,126,129,138,127,129,130,0
8298,127,128,128,125,119,127,132,127,0
8301,133,129,128,125,121,128,128,126,0
8303,132,127,128,128,123,128,126,126,0
8306,125,127,127,128,126,128,124,127,0
8310,129,128,127,126,125,127,129,129,0
8314,129,128,127,128,134,128,125,128,0
8317,128,127,126,127,128,128,130,128,0
8321,129,126,128,128,140,129,130,129,0
8324,124,128,125,129,139,126,127,130,0
8327,122,129,129,125,121,127,127,126,0
8332,126,128,127,128,124,128,126,126,0
8339,131,127,129,128,128,128,126,126,0
8343,125,128,130,128,124,127,131,128,0
8348,125,129,129,126,127,127,131,128,0
8351,128,128,128,128,136,130,125,127,0
8354,124,127,127,128,127,128,126,126,0
8357,125,128,127,126,127,128,126,128,0
8360,130,129,128,126,125,128,130,126,0
8363,131,128,127,128,125,128,130,127,0
8366,120,126,123,128,136,125,126,130,0
8369,123,127,126,128,120,128,130,128,0
8371,128,129,128,127,125,128,130,127,0
8374,130,126,129,127,120,128,127,126,0
8377,131,127,128,126,132,128,128,127,0
8380,131,127,128,128,123,128,125,128,0
8384,131,129,129,128,125,127,130,129,0
8387,127,128,127,129,132,129,124,129,0
8390,120,126,128,126,131,128,123,126,0
8393,125,127,129,128,122,127,128,127,0
8396,129,129,127,126,126,128,127,128,0
8399,126,128,128,128,131,127,127,130,0
8403,117,126,126,129,138,127,125,129,0
8406,126,127,125,129,134,128,130,128,0
8409,133,129,128,126,124,128,126,127,0
8412,134,129,129,125,121,128,126,126,0
8415,129,127,127,128,127,128,125,125,0
8418,125,127,128,128,121,127,129,126,0
8421,127,129,129,127,122,127,130,128,0
8425,133,129,128,129,131,127,129,127,0
8431,119,126,126,129,138,126,126,129,0
8435,122,126,126,128,122,128,126,127,0
8438,128,129,129,126,123,128,124,127,0
8440,125,128,127,127,127,128,125,126,0
8443,126,125,129,126,125,128,124,127,0
8448,128,125,128,126,126,128,125,125,0
8451,128,129,128,127,122,127,128,126,0
8454,130,129,128,126,121,127,126,126,0
8457,127,127,127,128,124,128,124,127,0
8460,123,126,126,129,137,126,129,128,0
8465,134,129,128,127,122,128,128,128,0
8468,132,129,127,126,122,127,125,128,0
8471,128,127,129,128,139,127,126,130,0
8475,122,126,126,129,134,127,126,129,0
8477,122,127,128,126,120,127,131,127,0
8480,134,129,130,128,119,128,127,125,0
8483,125,127,128,128,127,128,126,126,0
8486,128,127,127,126,121,127,129,128,0
8488,122,129,128,127,122,127,132,128,0
8492,129,129,128,127,122,127,124,127,0
8495,122,127,127,128,129,129,124,130,0
8498,123,125,126,129,138,125,130,130,0
8502,124,128,125,127,123,128,125,126,0
8505,127,128,126,127,122,128,129,127,0
8508,133,128,128,128,127,127,124,127,0
8511,131,127,128,128,125,127,125,127,0
8514,128,128,129,128,128,127,126,129,0
8518,122,129,129,128,138,129,124,127,0
8522,132,128,129,127,122,127,131,127,0
8528,132,127,127,128,126,128,127,127,0
8532,127,129,128,128,125,127,131,128,0
8535,122,129,127,126,126,128,122,128,0
8538,130,127,128,129,137,126,129,131,0
8541,128,125,124,129,135,126,127,129,0
8544,124,126,130,126,122,129,126,126,0
8547,129,129,127,128,123,128,130,127,0
8550,132,128,128,126,125,128,126,126,0
8553,131,125,128,129,125,129,123,126,0
8556,123,128,128,127,123,128,127,127,0
8563,131,127,127,128,136,128,126,128,0
8567,130,125,129,128,121,128,126,126,0
8571,125,124,128,127,129,128,125,126,0
8574,132,128,130,127,127,128,125,127,0
8577,133,130,128,126,124,128,127,126,0
8581,123,128,127,128,131,129,123,126,0
8584,123,126,128,126,127,128,125,126,0
8588,124,127,128,128,134,127,123,128,0
8591,127,129,127,128,121,128,131,127,0
8596,121,127,125,129,139,125,131,131,0
8599,126,126,124,128,136,126,126,128,0
8602,127,128,126,127,121,129,131,128,0
8605,133,129,127,125,120,128,128,127,0
8609,129,128,128,128,128,128,125,126,0
8612,129,126,129,126,123,128,126,127,0
8616,132,128,128,126,125,128,124,129,0
8619,133,129,129,128,124,127,126,126,0
8623,124,128,128,126,126,128,124,127,0
8628,128,127,129,129,126,128,122,127,0
8632,130,127,130,128,128,128,128,128,0
8635,128,128,128,127,127,127,127,126,0
8639,122,128,129,128,127,128,127,127,0
8642,120,124,128,128,125,128,126,129,0
8645,122,127,126,129,137,126,129,130,0
8648,126,129,128,126,121,127,132,127,0
8651,134,128,128,127,126,130,124,126,0
8653,126,127,127,129,138,127,128,129,0
8657,119,126,126,128,137,128,128,128,0
8660,135,129,127,126,122,127,131,128,0
8663,124,128,127,128,124,128,131,128,0
8667,126,127,129,126,127,128,126,126,0
8671,132,127,128,127,127,129,127,128,0
8674,130,129,129,126,125,128,132,128,0
8678,131,128,127,128,130,128,123,128,0
8681,129,127,128,128,136,128,128,128,0
8686,123,126,122,129,137,126,128,130,0
8688,122,129,128,126,121,127,130,127,0
8691,130,128,128,128,121,129,127,126,0
8694,133,128,128,126,130,128,129,127,0
8698,132,125,130,128,124,128,129,126,0
8702,130,128,127,126,125,128,128,126,0
8705,127,128,129,129,129,128,123,129,0
8708,120,127,128,128,130,128,123,126,0
8711,132,125,127,129,139,126,128,131,0
8715,125,126,130,126,123,128,128,127,0
8720,134,129,127,125,121,128,131,127,0
8726,132,128,130,128,128,128,124,127,0
8730,130,124,126,129,135,126,128,130,0
8734,123,127,126,128,121,128,127,126,0
8737,126,129,128,127,122,129,131,127,0
8740,134,128,129,126,130,128,129,126,0
8743,132,125,129,128,125,127,130,127,0
8746,125,128,128,128,126,128,126,128,0
8750,131,129,127,127,131,127,129,128,0
8752,132,128,128,126,127,128,125,127,0
8756,128,126,128,128,125,127,125,130,0
8758,123,127,125,128,120,128,130,128,0
8762,131,129,127,125,125,127,126,126,0
8765,127,128,128,128,131,128,124,126,0
8768,122,127,127,128,128,126,127,130,0
8771,123,127,126,129,136,127,127,127,0
8774,130,129,127,128,125,128,125,127,0
8778,126,128,127,126,129,128,124,127,0
8781,129,127,128,129,140,126,126,130,0
8784,122,127,126,126,122,128,132,127,0
8788,130,129,128,128,123,127,127,127,0
8792,132,128,127,126,131,129,122,127,0
8795,130,125,128,129,124,128,130,126,0
8798,122,127,127,126,122,127,130,128,0
8801,132,129,128,128,123,128,124,126,0
8804,124,128,128,128,122,128,126,127,0
8808,129,127,126,128,132,127,127,130,0
8815,128,126,123,130,138,126,126,131,0
8818,121,129,127,125,120,127,131,127,0
8824,132,129,127,125,127,128,128,128,0
8829,128,127,127,128,126,129,129,127,0
8835,128,126,128,126,121,128,127,127,0
8838,134,130,129,126,122,128,127,126,0
8842,124,129,128,128,122,128,126,128,0
8846,130,127,128,128,132,128,126,126,0
8849,124,127,127,126,122,128,127,127,0
8851,130,129,128,128,130,128,128,129,0
8854,128,128,129,128,134,128,126,128,0
8858,127,127,126,129,142,125,129,131,0
8864,123,126,124,128,139,126,126,128,0
8867,133,129,129,128,124,127,128,126,0
8870,127,129,127,128,125,128,125,125,0
8874,120,126,127,128,123,128,126,126,0
8877,127,127,129,128,127,127,128,127,0
8880,123,129,127,126,125,127,129,128,0
8883,127,128,128,126,120,128,126,127,0
8888,127,127,127,128,127,128,127,126,0
8892,124,126,127,128,128,127,128,127,0
8896,125,128,127,126,125,127,126,127,0
8899,121,128,127,126,127,127,131,127,0
8902,126,127,128,129,138,126,130,130,0
8906,124,126,125,130,134,126,128,130,0
8909,124,128,130,126,120,127,132,127,0
8913,132,129,129,125,121,128,126,125,0
8916,126,126,128,126,123,128,125,126,0
8919,131,125,128,126,119,128,128,127,0
8923,131,127,128,128,129,128,127,128,0
8929,133,129,128,126,130,128,124,127,0
8932,131,126,129,128,130,128,125,125,0
8939,130,129,129,128,123,128,128,127,0
8935,131,127,130,127,122,129,125,125,0
8942,134,129,129,128,135,127,125,127,0
8945,122,127,126,129,127,128,128,128,0
8949,126,126,126,129,141,126,130,131,0
8952,123,127,126,128,136,126,131,130,0
8955,128,129,128,125,121,128,132,126,0
8958,132,128,128,126,127,129,126,126,0
8961,130,127,128,128,126,128,130,129,0
8963,125,128,128,127,123,127,131,128,0
8967,127,129,128,128,124,127,126,127,0
8970,132,127,128,128,135,128,126,126,0
8973,122,127,127,128,128,128,128,128,0
8978,133,128,128,128,126,128,127,127,0
8982,124,126,125,128,139,126,124,127,0
8984,127,128,129,126,124,128,123,126,0
8989,134,126,122,129,136,124,129,130,0
8993,124,126,124,129,126,127,128,126,0
8997,129,129,128,127,128,128,126,126,0
8999,129,128,127,127,124,128,128,127,0
9002,133,126,127,127,121,128,128,127,0
9005,128,128,128,126,121,128,130,128,0
9008,129,129,128,128,124,128,127,128,0
9011,130,128,128,128,124,128,127,128,0
9015,124,126,125,129,138,127,129,129,0
9020,122,128,130,128,125,129,127,127,0
9027,125,129,130,128,123,127,131,127,0
9031,132,129,129,128,133,128,130,127,0
9033,132,127,129,129,136,126,126,129,0
9036,122,125,129,126,127,128,126,126,0
9039,134,130,129,128,119,128,128,126,0
9042,130,129,128,125,122,128,131,127,0
9045,128,127,129,129,138,129,127,130,0
9048,122,126,127,129,130,128,128,127,0
9052,133,129,129,128,127,128,127,126,0
9055,131,129,127,126,122,128,128,126,0
9058,131,127,129,127,127,128,127,128,0
9061,122,127,128,128,128,128,126,129,0
9064,131,129,128,128,127,128,127,128,0
9067,126,128,127,127,135,128,125,128,0
9070,121,127,126,129,137,125,131,130,0
9074,128,126,123,127,137,126,127,130,0
9078,121,129,130,127,122,128,127,125,0
9081,126,128,127,128,124,129,131,127,0
9084,128,127,128,129,133,128,126,126,0
9088,131,125,128,126,122,128,130,128,0
9092,131,130,129,128,126,128,126,127,0
9096,124,129,129,128,129,128,127,127,0
9099,125,128,126,126,128,127,128,129,0
9102,120,127,129,128,127,128,126,128,0
9105,122,128,126,128,129,127,129,129,0
9108,126,129,127,128,124,128,127,126,0
9111,127,127,127,128,127,128,128,127,0
9116,118,124,125,129,137,126,127,128,0
9120,131,129,128,126,118,127,128,126,0
9123,131,129,127,126,126,128,123,127,0
9127,130,128,128,128,123,128,127,126,0
9130,132,127,126,129,137,126,128,131,0
9134,123,127,126,129,141,126,125,127,0
9138,131,129,129,126,122,127,131,127,0
9141,132,128,128,128,124,128,127,126,0
9144,127,126,127,128,128,128,126,128,0
9149,130,128,129,128,125,128,128,128,0
9151,129,129,127,127,128,127,127,128,0
9154,132,126,129,127,129,129,122,127,0
9159,132,127,128,126,124,128,124,128,0
9165,129,128,130,128,125,128,129,127,0
9169,130,128,129,127,139,127,128,127,0
9172,124,127,125,129,141,126,128,131,0
9176,123,126,124,129,137,126,127,130,0
9179,123,127,127,128,123,128,131,127,0
9181,128,129,128,128,123,129,128,127,0
9185,128,128,128,127,132,129,129,127,0
9188,131,125,127,128,123,128,127,125,0
9191,125,126,130,128,126,128,127,126,0
9194,131,129,129,126,129,128,129,127,0
9197,130,128,129,128,128,128,126,125,0
9200,127,127,128,128,126,127,128,126,0
9203,128,127,128,128,129,127,129,127,0
9207,126,129,128,126,123,128,128,126,0
9213,126,128,127,127,127,127,128,128,0
9218,122,127,126,129,142,126,129,131,0
9222,124,127,125,129,139,126,127,130,0
9225,133,129,129,127,125,128,126,127,0
9228,131,128,127,127,128,128,128,127,0
9231,130,127,127,125,121,128,130,128,0
9235,133,126,130,128,127,128,126,126,0
9240,129,129,126,128,122,128,129,127,0
9242,129,128,127,127,125,127,130,127,0
9245,122,127,128,126,128,127,126,126,0
9248,127,127,129,128,136,127,128,129,0
9251,118,129,129,128,133,127,125,126,0
9254,125,128,128,127,124,127,126,133,0
9257,122,126,125,130,138,126,130,129,0
9259,122,126,126,128,137,125,126,128,0
9264,132,129,128,127,120,127,132,127,0
9267,130,129,127,126,120,128,130,126,0
9270,127,127,128,129,134,128,127,126,0
9273,133,128,127,128,120,128,126,128,0
9276,130,129,129,127,122,127,128,128,0
9279,128,129,128,128,137,130,127,129,0
9282,125,126,126,129,136,124,130,130,0
9284,124,126,125,129,125,128,124,126,0
9287,130,129,129,126,121,128,126,127,0
9290,129,128,129,125,124,128,127,126,0
9293,127,127,126,128,125,128,123,128,0
9297,131,124,127,128,121,128,128,127,0
9302,130,129,127,126,124,127,124,129,0
9309,132,129,128,128,123,127,127,127,0
9312,123,125,127,128,123,128,127,128,0
9315,122,127,128,127,129,128,124,127,0
9318,132,129,129,128,122,128,123,126,0
9321,124,128,128,126,124,128,128,126,0
9323,123,125,125,129,138,127,127,129,0
9328,123,126,125,129,136,127,131,130,0
9331,123,128,128,126,122,127,128,127,0
9334,135,129,128,128,122,127,128,127,0
9337,131,126,128,126,126,127,128,127,0
9340,129,127,128,127,125,129,127,126,0
9343,126,128,128,128,133,128,125,128,0
9346,132,128,128,128,142,127,129,128,0
9348,131,127,127,126,123,127,128,127,0
9351,120,126,128,128,124,128,123,127,0
9354,128,128,129,128,133,127,130,128,0
9356,123,128,126,127,131,128,126,127,0
9359,123,125,129,129,141,125,131,131,0
9366,129,126,124,129,136,126,126,129,0
9370,121,127,130,125,121,127,128,128,0
9373,133,130,128,125,122,127,128,126,0
9378,134,126,127,128,127,128,127,126,0
9381,129,127,127,128,124,127,130,127,0
9383,129,128,129,127,129,128,127,129,0
9387,125,129,128,127,133,128,127,126,0
9392,126,128,125,128,127,129,124,128,0
9398,125,127,128,127,126,128,129,129,0
9403,125,126,126,128,123,128,128,127,0
9407,124,129,127,129,130,128,125,126,0
9410,126,128,130,128,123,128,128,126,0
9413,121,127,129,127,128,129,124,126,0
9418,126,127,127,126,124,127,130,128,0
9421,127,129,128,128,124,128,124,126,0
9424,130,128,127,128,124,128,125,131,0
9436,123,126,122,129,137,126,131,130,0
9440,125,127,125,129,138,128,128,127,0
9444,130,129,129,128,125,128,130,127,0
9447,132,128,128,128,123,128,125,125,0
9450,130,126,128,128,124,128,126,126,0
9454,130,128,127,128,121,127,130,128,0
9457,131,129,129,128,130,127,131,129,0
9462,119,129,127,126,130,127,131,127,0
9469,124,126,129,126,127,128,126,128,0
9474,126,127,129,126,122,128,128,127,0
9478,130,129,128,127,127,127,129,129,0
9481,128,128,127,128,131,127,128,127,0
9486,126,126,129,129,140,125,128,130,0
9489,127,126,123,128,135,126,125,127,0
9493,134,127,130,128,122,128,130,127,0
9496,130,128,128,126,125,127,124,128,0
9499,132,127,128,126,126,127,124,128,0
9503,129,127,130,126,123,128,128,127,0
9508,129,129,128,126,131,126,128,128,0
9515,124,128,127,127,122,127,128,128,0
9519,131,127,128,128,125,128,124,127,0
9523,128,125,128,128,123,128,126,127,0
9526,133,130,129,128,128,127,124,126,0
9529,131,129,128,126,121,128,128,127,0
9532,124,127,128,128,135,128,125,128,0
9537,120,127,128,126,128,128,133,129,0
9540,123,129,129,127,122,127,126,127,0
9544,133,129,128,128,127,127,125,129,0
9547,122,126,123,129,136,125,130,131,0
9550,125,126,125,128,137,126,127,129,0
9554,129,129,129,125,119,128,131,127,0
9557,133,129,127,128,124,129,126,125,0
9560,123,128,126,128,121,128,125,129,0
9564,120,125,127,127,122,127,131,128,0
9567,131,129,128,126,125,127,128,128,0
9570,128,129,127,126,131,127,130,129,0
9574,126,127,127,128,128,127,127,131,0
9584,119,125,128,128,122,128,127,127,0
9589,129,128,127,126,128,127,130,128,0
9592,130,129,128,128,123,128,129,128,0
9596,129,128,128,129,141,127,129,128,0
9599,125,126,126,129,136,127,129,130,0
9603,128,128,126,128,124,128,126,126,0
9606,128,129,127,126,120,127,131,127,0
9616,128,127,128,127,125,128,125,128,0
9611,134,128,128,125,128,128,129,126,0
9620,131,126,129,128,122,128,129,127,0
9623,129,129,127,126,126,127,123,126,0
9628,124,127,127,126,124,128,127,127,0
9632,128,126,128,126,126,128,129,128,0
9635,120,127,127,128,134,127,127,129,0
9638,129,130,129,128,128,127,127,128,0
9642,130,128,128,127,125,127,124,126,0
9645,133,125,126,129,139,125,130,132,0
9648,126,127,125,129,137,126,128,126,0
9651,129,129,128,127,125,128,127,127,0
9655,130,129,128,125,121,128,126,125,0
9658,134,127,127,127,121,128,131,128,0
9664,120,128,128,126,123,128,129,127,0
9668,128,129,128,128,121,128,126,128,0
9671,132,129,128,128,124,128,127,126,0
9675,132,127,129,128,135,128,127,125,0
9678,128,128,129,128,133,128,131,127,0
9681,131,129,130,127,122,128,129,128,0
9685,130,127,126,129,141,125,127,131,0
9688,128,125,124,129,138,126,128,130,0
9700,123,126,128,128,125,128,127,127,0
9704,128,129,127,126,122,127,133,126,0
9708,128,129,127,127,121,128,131,127,0
9711,131,128,127,128,120,128,131,127,0
9715,129,127,129,128,122,128,128,128,0
9719,132,129,128,127,121,127,127,128,0
9724,127,128,128,127,127,128,129,127,0
9728,130,127,128,128,136,128,130,127,0
9737,128,127,128,128,129,128,124,128,0
9740,131,129,127,127,128,127,129,129,0
9744,119,128,128,127,128,128,129,128,0
9747,118,126,125,129,140,127,127,130,0
9751,122,126,125,129,137,127,132,130,0
9754,128,128,128,125,121,128,129,127,0
9757,133,128,128,126,118,128,128,126,0
9760,129,127,128,127,119,128,125,125,0
9768,125,127,128,126,121,128,128,126,0
9777,132,130,127,126,127,127,131,128,0
9780,129,129,128,128,136,128,120,129,0
9784,132,127,130,129,141,126,128,131,0
9787,124,126,125,129,129,128,127,125,0
9791,129,128,128,126,122,127,128,126,0
9796,132,128,127,126,125,128,127,126,0
9800,123,125,127,129,133,129,126,125,0
9803,124,127,129,128,133,128,126,128,0
9807,129,128,129,129,137,127,132,127,0
9810,131,129,128,128,128,128,124,128,0
9814,133,127,126,129,141,127,127,130,0
9818,125,126,125,129,139,127,130,130,0
9822,126,128,129,125,121,128,131,127,0
9826,131,128,127,128,121,128,127,126,0
9829,130,128,128,128,122,127,127,128,0
9833,117,126,129,126,131,127,130,128,0
9840,128,128,128,128,129,126,129,128,0
9844,133,129,129,126,128,128,126,127,0
9848,123,128,127,128,130,128,125,126,0
9852,121,127,128,127,140,127,127,132,0
9855,122,127,124,129,137,127,124,126,0
9859,127,128,128,126,120,128,132,126,0
9862,134,128,129,125,122,127,130,126,0
9865,127,127,127,125,121,128,130,127,0
9871,131,128,127,128,123,128,131,128,0
9876,132,129,128,126,122,127,130,127,0
9880,129,128,128,128,128,128,123,128,0
9887,123,126,126,129,139,127,125,130,0
9890,122,126,126,128,119,127,131,128,0
9894,132,127,128,128,128,127,127,126,0
9899,125,128,128,128,124,128,128,127,0
9904,124,127,128,128,136,128,127,126,0
9908,126,127,127,126,123,127,129,127,0
9912,123,129,127,127,124,128,130,129,0
9915,128,128,127,128,128,127,130,129,0
9919,124,126,125,129,137,127,127,129,0
9922,124,127,129,126,119,127,132,128,0
9926,131,129,127,125,125,128,126,127,0
9929,130,128,127,128,130,128,125,126,0
9933,128,126,127,127,125,129,125,127,0
9938,130,128,128,126,122,127,132,129,0
9943,125,129,127,126,125,128,130,129,0
9949,125,128,126,126,126,128,127,128,0
9954,127,124,125,129,139,127,127,129,0
9958,123,126,126,129,134,126,124,128,0
9961,131,129,128,127,121,127,129,127,0
9967,133,129,130,126,121,128,127,126,0
9971,129,127,128,126,126,128,126,127,0
9975,130,126,127,126,121,127,131,127,0
9979,129,130,129,128,123,127,129,127,0
9983,126,126,127,126,123,128,127,126,0
9988,128,125,129,130,137,125,130,131,0
9991,125,125,125,129,136,126,128,130,0
9995,127,129,129,125,124,127,129,128,0
9998,130,127,129,126,129,128,128,126,0
10001,132,126,127,128,128,129,126,127,0
10004,133,125,129,128,122,128,126,127,0
10007,130,129,127,127,126,128,128,128,0
10011,132,129,128,128,128,128,129,128,0
10015,128,127,127,128,124,128,127,126,0
10018,127,126,129,128,124,128,125,127,0
10021,131,129,129,127,128,127,127,127,0
10024,123,126,126,128,131,128,129,127,0
10028,127,127,127,128,135,130,126,128,0
10031,123,125,124,129,136,126,128,130,0
10033,126,128,128,125,118,127,130,127,0
10037,134,129,128,126,119,127,131,127,0
10041,130,128,128,128,131,128,129,126,0
10047,131,127,129,126,126,129,124,126,0
10051,122,129,129,126,132,128,124,127,0
10055,128,129,127,126,123,127,130,128,0
10061,128,128,127,126,129,129,124,127,0
10064,124,126,126,130,137,126,128,130,0
10069,129,127,128,126,121,128,131,128,0
10072,128,129,128,126,121,127,127,126,0
10076,126,128,128,127,123,129,127,125,0
10082,129,128,128,126,130,128,129,128,0
10085,131,128,130,129,125,127,125,127,0
10088,127,128,128,126,124,127,122,132,0
10139,121,128,128,129,133,128,123,126,0
10144,126,126,129,129,134,128,124,126,0
10148,125,128,127,127,129,127,129,128,0
10152,130,129,129,127,132,128,129,128,0
10156,127,127,128,128,132,128,124,127,0
10160,130,126,127,128,129,128,126,128,0
10208,126,128,128,128,131,128,126,127,0
10221,125,128,127,127,128,128,129,127,0
10226,124,127,126,129,135,125,132,130,0
10230,129,126,124,128,135,126,127,129,0
10233,123,127,126,126,121,128,133,127,0
10272,134,130,128,128,122,128,129,126,0
10287,132,128,130,126,120,128,129,127,0
10295,132,125,130,128,140,129,124,128,0
10299,118,125,127,127,123,127,123,127,0
10303,134,130,127,126,125,129,124,127,0
10343,131,126,128,126,127,127,123,125,0
10351,133,128,128,126,124,128,124,126,0
10360,125,127,126,127,126,127,128,128,0
10367,120,129,128,128,127,127,128,127,0
10382,128,128,128,127,123,128,124,126,0
10409,125,124,129,130,138,127,129,129,0
10417,124,126,126,129,138,126,130,127,0
10424,126,129,127,127,126,127,130,128,0
10431,131,128,128,127,121,128,130,126,0
10436,130,127,129,128,123,128,126,127,0
10439,127,124,128,127,121,129,123,126,0
10443,130,129,127,126,122,127,129,128,0
10447,123,128,128,128,126,127,128,128,0
10450,127,127,127,128,139,129,124,126,0
10454,130,126,128,127,129,128,129,127,0
10457,133,129,128,127,122,127,127,126,0
10460,126,128,127,129,128,128,126,127,0
10463,133,126,124,129,135,124,130,131,0
10467,126,126,124,129,136,127,131,127,0
10470,128,129,128,128,122,128,126,128,0
10473,134,127,129,125,125,129,124,128,0
10477,132,127,128,125,122,128,125,126,0
10483,129,126,127,126,120,128,128,126,0
10488,131,130,127,126,121,128,128,126,0
10491,129,128,128,128,122,128,126,126,0
10494,129,127,127,129,140,126,127,129,0
10498,122,126,126,129,136,126,125,128,0
10501,127,127,130,128,129,128,124,126,0
10504,129,127,130,126,120,127,130,126,0
10507,127,128,128,128,129,127,127,128,0
10511,120,127,128,128,129,128,127,128,0
10514,125,129,128,127,135,127,128,126,0
10519,130,129,127,126,123,128,128,128,0
10522,130,127,127,126,127,128,127,128,0
10525,127,126,127,128,131,128,127,126,0
10528,126,127,127,127,125,127,125,129,0
10531,129,128,128,128,139,126,126,130,0
10535,125,127,125,129,137,125,132,131,0
10544,126,126,125,129,135,127,129,131,0
10548,125,127,131,125,121,129,127,126,0
10551,130,127,128,128,124,128,130,127,0
10553,128,128,128,127,129,128,131,127,0
10557,133,127,127,125,120,127,131,126,0
10560,130,129,127,127,121,127,131,129,0
10563,126,129,128,128,123,128,128,126,0
10568,131,128,127,126,123,128,124,129,0
10571,120,126,126,127,125,129,129,128,0
10574,129,127,127,126,128,128,129,128,0
10580,126,129,129,128,127,127,125,128,0
10585,129,128,126,126,122,128,128,127,0
10588,132,127,128,128,124,128,125,127,0
10591,124,128,127,126,128,127,129,128,0
10594,119,129,127,127,128,128,128,128,0
10610,121,128,126,127,127,127,126,131,0
10615,129,126,123,129,137,126,127,130,0
10618,127,128,126,128,119,128,128,126,0
10680,129,129,128,126,120,127,131,127,0
10691,132,128,127,125,121,128,127,126,0
10707,133,127,128,126,123,129,125,126,0
10712,126,127,126,126,123,128,124,126,0
10717,129,129,130,128,126,127,126,127,0
10721,130,128,127,126,122,127,130,128,0
10725,128,127,128,129,125,128,125,128,0
10728,128,127,127,126,128,127,129,129,0
10731,126,128,128,127,131,127,125,128,0
10735,131,127,127,128,130,127,126,128,0
10738,124,126,125,129,139,125,129,131,0
10742,122,126,124,128,136,127,131,128,0
10745,134,130,128,125,120,128,128,127,0
10748,128,128,127,128,125,127,130,126,0
10752,132,127,128,128,129,128,127,126,0
10755,129,125,130,128,128,128,122,127,0
10760,133,129,130,126,125,128,128,126,0
10764,127,128,128,128,125,127,126,127,0
10767,121,126,127,128,128,128,128,128,0
10771,125,126,129,128,132,127,129,128,0
10774,131,129,129,128,131,127,123,128,0
10777,131,128,128,126,128,127,129,128,0
10780,119,124,125,130,140,127,129,130,0
10784,124,126,123,129,134,126,126,127,0
10787,128,129,128,128,124,128,130,129,0
10790,124,128,128,128,122,127,129,126,0
10794,129,127,127,126,122,129,126,126,0
10797,127,127,126,129,139,126,125,128,0
10801,131,129,129,127,122,128,127,126,0
10804,128,128,129,128,121,128,128,126,0
10808,129,127,128,127,126,128,128,127,0
10811,131,126,128,126,122,128,130,129,0
10814,127,128,128,128,123,127,128,128,0
10818,125,128,128,129,140,126,130,132,0
10821,124,126,126,129,132,127,130,127,0
10824,128,127,128,126,124,128,131,127,0
10827,129,129,128,127,122,127,129,127,0
10830,129,129,128,127,131,127,130,127,0
10833,123,128,127,128,129,129,125,128,0
10838,126,126,127,126,124,128,125,127,0
10841,122,128,128,126,122,127,130,128,0
10844,120,128,127,127,129,128,129,127,0
10849,133,125,125,130,135,125,130,130,0
10855,128,126,125,129,135,127,126,130,0
10860,126,128,127,125,122,129,131,128,0
10867,127,127,127,128,121,127,131,127,0
10864,132,129,130,126,119,128,125,125,0
10870,133,127,129,128,123,128,126,126,0
10880,132,129,127,126,123,127,131,127,0
10883,127,129,128,127,130,128,125,128,0
10886,123,128,128,128,131,128,129,127,0
10889,133,127,126,126,123,128,127,127,0
10892,130,128,128,129,123,127,126,129,0
10952,126,130,127,126,123,127,125,126,0
10965,121,127,127,129,137,129,125,126,0
10973,122,127,127,128,120,128,127,127,0
10979,131,128,129,128,124,128,127,127,0
10985,127,129,127,126,130,128,124,128,0
10991,129,128,128,129,141,127,128,132,0
10994,125,126,126,128,140,127,127,130,0
11006,125,127,126,129,121,127,131,128,0
11010,134,129,128,126,122,128,127,127,0
11014,127,127,129,128,123,128,125,127,0
11017,130,126,127,128,122,127,130,127,0
11020,128,127,127,127,123,127,131,128,0
11024,128,129,129,127,122,127,127,125,0
11027,127,128,127,128,124,128,126,126,0
11032,127,127,127,128,135,126,129,130,0
11039,119,126,126,129,137,126,130,132,0
11044,124,129,128,127,128,127,128,128,0
11048,127,128,127,127,122,129,125,128,0
11051,129,127,128,126,124,127,130,127,0
11054,129,127,129,128,124,128,130,127,0
11057,130,129,128,128,124,128,127,126,0
11060,128,128,128,129,131,128,125,126,0
11063,124,127,123,129,137,126,130,130,0
11065,126,126,124,129,137,128,129,127,0
11068,132,130,129,126,122,129,126,126,0
11071,123,127,129,128,121,127,128,126,0
11074,122,127,129,128,130,129,124,125,0
11077,131,125,128,128,132,127,131,128,0
11080,127,129,128,127,124,128,130,128,0
11083,130,129,128,128,122,128,124,127,0
11087,131,127,128,128,137,127,129,130,0
11090,123,126,126,129,137,126,130,131,0
11093,128,129,127,126,119,128,130,127,0
11097,130,128,129,128,121,128,127,126,0
11101,131,127,128,126,123,128,124,126,0
11104,124,126,127,128,128,128,127,126,0
11107,122,126,128,128,122,128,127,127,0
11111,130,128,129,127,132,128,129,130,0
11115,120,126,127,129,138,127,129,130,0
11119,124,126,125,129,138,126,132,130,0
11124,125,128,129,125,120,128,130,127,0
11128,130,128,128,126,120,127,130,127,0
11130,125,127,128,126,122,128,125,126,0
11133,128,127,129,126,126,128,125,127,0
11137,131,128,130,129,124,127,131,127,0
11141,121,128,129,127,127,128,125,125,0
11144,120,124,127,128,125,127,131,127,0
11147,121,127,126,129,129,129,125,127,0
11150,131,128,128,127,124,127,129,127,0
11153,133,129,127,127,127,128,124,127,0
11160,123,127,126,127,126,128,123,127,0
11163,130,126,128,128,129,127,126,130,0
11166,125,127,126,129,138,126,130,130,0
11169,124,128,127,127,120,128,129,127,0
11172,130,128,128,126,121,128,127,126,0
11175,127,126,127,126,126,127,127,126,0
11178,129,128,127,126,124,127,128,128,0
11181,130,129,128,128,125,128,125,127,0
11186,129,127,127,128,124,127,124,126,0
11191,128,126,128,129,137,124,127,131,0
11194,125,127,125,129,138,128,126,126,0
11197,125,129,129,128,121,128,128,126,0
11200,133,128,129,128,125,128,123,126,0
11203,128,127,127,129,126,128,127,126,0
11208,125,127,127,128,123,127,129,128,0
11212,130,127,130,129,123,127,122,128,0
11218,130,127,128,129,135,128,123,128,0
11224,119,126,125,130,137,127,127,130,0
11228,123,127,126,126,122,128,125,126,0
11232,132,127,130,128,126,128,127,127,0
11235,132,128,128,126,123,128,124,126,0
11239,127,127,127,125,126,128,126,128,0
11242,124,127,129,129,134,127,130,128,0
11245,129,129,128,128,134,127,123,128,0
11249,128,128,127,128,127,128,128,127,0
11252,129,127,129,129,139,125,131,130,0
11257,126,126,125,128,137,126,126,128,0
11260,130,128,131,128,123,128,128,126,0
11263,127,128,128,128,123,127,131,127,0
11267,122,127,126,128,122,129,131,127,0
11270,132,127,129,127,124,128,125,128,0
11273,129,129,128,126,127,128,127,127,0
11278,133,129,127,126,120,128,127,127,0
11281,131,125,127,129,140,127,127,130,0
11284,123,126,125,129,132,128,132,127,0
11289,129,129,128,127,122,127,126,128,0
11292,124,128,129,127,127,128,129,127,0
11296,129,127,128,128,131,128,126,127,0
11304,130,127,128,128,127,128,123,128,0
11308,129,129,129,127,124,128,129,128,0
11316,124,128,127,127,132,128,127,128,0
11320,123,125,129,129,136,126,130,130,0
11323,125,126,125,129,138,126,132,130,0
11326,127,128,128,125,120,127,128,127,0
11330,134,129,128,128,118,128,131,126,0
11333,133,127,128,126,123,128,126,125,0
11337,129,126,127,128,124,128,127,126,0
11340,123,128,128,128,140,127,129,127,0
11343,127,129,128,127,137,127,126,127,0
11346,132,128,129,128,121,127,130,127,0
11350,125,126,128,126,123,127,131,128,0
11353,123,127,127,128,123,127,129,127,0
11357,130,128,128,128,133,128,124,127,0
11359,126,127,127,128,129,128,128,127,0
11362,124,126,128,126,122,127,124,128,0
11365,135,127,128,129,124,127,128,127,0
11369,130,128,127,126,126,127,126,127,0
11372,120,127,125,129,140,124,131,131,0
11376,128,126,123,129,138,126,126,130,0
11379,124,127,128,128,121,127,132,126,0
11381,135,129,129,127,124,128,123,126,0
11384,130,126,128,127,128,128,127,126,0
11388,130,126,129,127,124,128,126,128,0
11392,127,127,129,126,121,127,131,128,0
11395,127,129,128,128,127,128,127,126,0
11399,129,126,130,126,120,128,123,126,0
11403,127,124,128,127,126,128,125,126,0
11408,124,128,126,128,123,127,128,128,0
11411,133,129,129,128,129,128,126,128,0
11416,128,128,129,129,129,128,127,126,0
11418,122,127,128,127,124,129,130,127,0
11421,118,126,127,129,122,127,129,127,0
11424,125,129,128,128,129,127,131,127,0
11427,124,127,127,126,126,127,128,129,0
11431,125,125,123,129,135,125,128,131,0
11434,125,126,125,129,136,128,132,127,0
11437,134,130,130,127,120,127,130,127,0
11441,131,128,128,126,121,129,128,126,0
11444,129,127,129,127,128,130,123,127,0
11448,127,128,128,126,124,128,127,127,0
11451,130,129,128,127,124,128,124,127,0
11455,127,128,128,126,133,128,126,126,0
11458,125,127,129,129,133,128,124,125,0
11461,125,127,129,127,132,128,123,128,0
11466,126,129,130,128,128,127,128,128,0
11469,131,129,128,128,131,128,125,126,0
11472,130,127,128,128,141,127,127,131,0
11476,128,126,125,129,138,126,127,128,0
11478,130,130,127,126,122,128,129,127,0
11482,132,128,129,126,124,128,126,127,0
11487,131,125,130,128,131,129,127,126,0
11493,129,127,127,126,126,127,129,129,0
11497,125,128,127,128,129,127,127,128,0
11500,126,128,128,128,132,128,126,127,0
11503,132,127,128,126,126,127,130,126,0
11507,121,126,127,128,130,128,127,126,0
11510,122,129,128,128,139,126,131,131,0
11512,125,127,126,129,133,126,130,130,0
11515,126,126,126,128,133,130,131,127,0
11518,128,126,127,128,118,128,128,127,0
11521,133,129,129,128,124,128,125,126,0
11524,121,129,128,127,123,129,125,125,0
11529,124,125,127,129,127,128,128,126,0
11532,131,128,126,128,125,127,130,128,0
11535,128,129,129,128,125,127,128,126,0
11538,130,128,128,127,128,127,127,125,0
11541,133,128,128,126,121,128,126,126,0
11544,122,127,128,127,123,128,129,127,0
11547,133,129,129,128,138,127,129,128,0
11550,129,128,128,128,135,127,128,128,0
11554,118,127,124,129,140,126,128,131,0
11557,125,126,124,129,136,126,130,130,0
11560,123,129,128,125,121,128,127,127,0
11563,128,129,130,128,121,128,125,126,0
11567,131,128,127,128,120,127,131,127,0
11572,129,127,126,129,138,127,131,127,0
11577,133,129,128,127,126,128,124,128,0
11580,133,128,129,128,130,127,125,127,0
11583,124,126,127,126,126,128,131,128,0
11586,131,127,128,129,138,128,128,127,0
11589,130,128,128,127,128,128,129,129,0
11591,120,129,128,128,123,128,127,125,0
11594,128,127,128,126,124,127,125,130,0
11603,125,126,126,129,137,126,127,129,0
11606,126,127,126,125,118,126,131,126,0
11609,135,129,127,126,121,128,126,126,0
11613,132,128,128,127,128,128,123,126,0
11616,129,127,129,126,122,128,130,127,0
11620,129,128,129,128,129,127,129,128,0
11623,118,129,128,126,124,128,124,127,0
11627,119,128,128,128,135,128,127,127,0
11630,132,126,128,128,140,125,132,131,0
11633,122,126,125,129,138,128,132,127,0
11637,131,129,127,128,123,128,129,126,0
11641,132,128,129,128,123,128,124,127,0
11643,132,127,127,128,126,128,125,125,0
11646,125,125,127,126,124,128,129,127,0
11650,126,129,127,127,125,128,128,128,0
11653,132,128,128,129,128,127,125,129,0
11657,129,127,129,128,142,127,128,127,0
11663,129,128,128,127,128,127,129,129,0
11667,129,129,129,129,129,127,127,128,0
11669,123,128,127,126,127,128,122,125,0
11673,122,126,127,130,139,126,129,129,0
11677,125,126,125,129,137,126,131,128,0
11680,134,129,130,128,124,128,127,126,0
11684,128,128,127,125,124,128,129,126,0
11687,125,127,128,127,124,127,127,129,0
11690,129,126,124,128,134,127,124,125,0
11693,130,129,128,125,121,128,131,127,0
11696,134,129,129,126,122,128,126,125,0
11699,128,127,127,126,121,128,129,127,0
11702,131,127,128,128,120,127,131,127,0
11705,128,129,128,128,129,128,132,128,0
11708,129,126,128,128,127,128,126,129,0
11712,121,127,126,126,123,127,131,127,0
11715,127,124,126,126,122,129,124,126,0
11717,131,129,129,128,134,128,128,126,0
11720,133,129,127,126,121,128,128,127,0
11723,122,127,128,126,126,128,130,129,0
11726,121,126,122,129,139,126,127,130,0
11729,122,128,129,126,119,127,128,127,0
11732,132,127,128,128,126,127,131,127,0
11737,130,127,128,126,125,128,125,129,0
11742,122,126,125,129,139,128,128,127,0
11748,133,129,127,126,123,128,128,127,0
11751,129,128,128,128,129,127,131,128,0
11753,127,127,129,129,122,127,123,125,0
11756,128,126,127,126,124,128,128,126,0
11759,125,128,127,126,122,127,126,128,0
11762,127,128,127,128,124,128,125,127,0
11765,131,127,128,127,127,128,124,126,0
11769,128,126,127,129,139,125,131,131,0
11772,122,127,124,128,136,127,129,128,0
11776,128,128,128,127,125,127,129,128,0
11779,133,126,129,126,125,128,125,127,0
11781,132,125,130,126,125,129,125,127,0
11785,129,128,127,126,122,127,129,127,0
11788,135,129,127,126,123,127,128,127,0
11792,130,128,128,128,124,128,124,127,0
11797,131,126,128,128,128,128,123,127,0
11800,127,128,128,126,127,127,127,127,0
11805,129,129,127,128,131,127,128,129,0
11809,127,128,128,128,130,128,123,129,0
11814,125,126,125,129,139,124,130,131,0
11817,123,127,125,129,131,128,129,126,0
11821,133,129,129,128,125,128,129,127,0
11825,129,128,127,128,125,128,123,125,0
11832,126,125,130,128,129,128,123,127,0
11836,122,128,127,125,120,127,130,127,0
11839,130,129,127,128,124,128,126,127,0
11842,130,128,127,129,138,128,126,127,0
11846,131,127,127,128,126,128,125,126,0
11850,126,127,128,129,140,127,131,127,0
11861,130,128,127,129,127,128,124,126,0
11856,130,129,127,126,127,128,123,127,0
11864,130,127,126,129,135,124,131,130,0
11868,127,126,125,129,134,126,125,127,0
11872,132,130,127,128,121,127,130,127,0
11874,130,129,127,126,123,128,127,125,0
11878,128,127,127,126,123,128,130,128,0
11882,119,126,127,128,129,128,127,128,0
11885,128,128,127,128,126,127,131,128,0
11888,132,128,128,127,122,127,126,126,0
11892,120,127,128,128,123,127,131,126,0
11895,130,126,126,129,138,127,128,126,0
11898,129,129,128,126,120,128,128,125,0
11905,133,128,128,126,122,129,123,127,0
11909,119,126,127,128,123,128,124,127,0
11913,129,124,126,129,137,127,127,127,0
11917,130,129,127,128,120,128,130,128,0
11920,119,127,129,128,126,128,127,127,0
11923,127,127,127,126,123,127,130,127,0
11929,125,126,126,129,140,126,125,128,0
11933,132,129,129,127,131,127,130,128,0
11937,128,129,128,127,122,128,128,126,0
11940,129,127,128,127,122,129,124,126,0
11943,128,127,129,129,136,128,126,127,0
11946,131,129,128,128,126,127,127,127,0
11950,126,128,127,128,130,129,127,131,0
11953,126,126,125,130,140,127,129,130,0
11957,126,125,124,129,137,127,130,127,0
11959,129,129,128,125,122,128,132,127,0
11963,135,129,127,128,124,129,130,127,0
11966,127,127,127,128,123,128,130,127,0
11969,121,126,127,127,119,127,130,127,0
11972,134,129,129,127,133,127,128,127,0
11974,130,128,128,126,122,127,128,127,0
11977,127,127,129,128,138,129,127,126,0
11980,129,127,127,129,128,128,128,128,0
11983,120,129,127,126,126,127,127,126,0
11986,128,128,128,129,126,128,127,127,0
11989,124,127,127,128,130,128,125,126,0
11992,128,126,128,129,121,128,129,127,0
11995,131,127,129,128,127,127,127,127,0
11999,127,128,127,129,128,127,127,127,0
12002,125,127,127,128,130,129,128,131,0
12004,127,125,123,129,137,126,128,130,0
12009,122,127,125,128,120,128,130,129,0
12013,130,129,129,125,121,127,128,128,0
12017,134,126,128,128,125,128,127,128,0
12021,132,126,127,128,125,127,123,128,0
12023,131,129,131,128,118,128,128,126,0
12026,134,129,127,129,131,128,126,126,0
12029,121,127,127,126,123,127,127,127,0
12031,131,126,128,126,131,128,129,131,0
12034,118,125,130,129,128,128,129,127,0
12037,122,129,127,128,128,129,123,126,0
12040,122,126,128,127,130,129,126,126,0
12043,126,127,128,127,122,128,125,127,0
12046,132,128,130,128,121,127,129,126,0
12049,133,129,128,126,127,128,123,127,0
12052,128,128,128,129,125,128,128,130,0
12056,124,126,124,129,136,125,127,131,0
12059,126,126,126,128,131,127,130,126,0
12062,129,129,131,125,125,128,124,128,0
12065,131,126,130,126,122,128,125,126,0
12068,132,126,127,128,121,128,127,126,0
12071,129,128,128,128,123,127,131,128,0
12074,127,129,127,126,123,127,130,128,0
12079,128,128,127,126,125,128,126,128,0
12082,131,127,128,128,121,128,128,127,0
12088,118,124,126,129,124,127,127,128,0
12092,125,129,127,126,127,127,129,129,0
12098,131,128,128,128,129,127,129,128,0
12102,131,126,128,128,129,128,130,130,0
12105,123,126,126,129,139,126,130,129,0
12107,135,129,128,128,121,128,127,127,0
12110,134,129,128,127,121,128,125,126,0
12113,126,127,128,129,128,128,128,128,0
12116,133,127,128,128,122,129,124,126,0
12119,131,129,128,128,124,127,128,128,0
12122,122,128,128,128,125,127,129,128,0
12124,128,127,129,130,140,127,128,129,0
12128,122,126,125,129,134,125,127,130,0
12131,125,128,129,126,119,128,127,126,0
12135,125,129,128,128,122,128,130,127,0
12138,131,127,128,128,119,128,130,127,0
12141,132,125,131,126,123,128,127,128,0
12145,130,129,130,126,126,128,125,126,0
12148,125,128,127,128,122,127,132,129,0
12151,123,126,129,128,122,128,126,126,0
12155,124,125,129,126,131,128,127,126,0
12159,129,129,127,128,128,127,128,127,0
12162,128,128,128,128,123,128,126,130,0
12165,121,126,123,129,136,126,127,129,0
12170,125,127,126,129,133,126,129,128,0
12174,128,129,129,127,121,128,126,127,0
12177,127,129,129,128,125,129,124,125,0
12179,126,126,128,128,120,128,126,126,0
12183,130,127,129,128,127,128,127,126,0
12186,122,128,130,128,122,127,128,128,0
12190,128,129,129,128,130,128,125,127,0
12193,132,128,128,126,129,129,124,126,0
12196,129,127,128,128,127,128,128,127,0
12199,124,129,127,126,127,126,130,128,0
12203,127,129,127,127,129,128,126,127,0
12206,130,128,128,127,122,127,127,127,0
12209,121,126,124,128,138,125,127,131,0
12215,122,127,126,129,126,128,125,127,0
12219,129,129,128,127,122,129,127,126,0
12222,124,128,127,128,121,127,130,126,0
12227,129,127,126,128,123,127,131,127,0
12230,128,128,128,127,128,127,124,128,0
12234,134,129,127,127,126,128,127,128,0
12237,133,128,129,127,128,129,128,130,0
12240,124,126,125,129,137,126,129,129,0
12245,124,128,128,125,121,127,128,127,0
12248,133,129,128,126,122,127,129,128,0
12251,131,128,128,128,122,128,124,128,0
12257,132,127,128,126,133,128,127,126,0
12263,125,127,130,127,128,128,128,128,0
12268,121,129,128,127,127,128,127,126,0
12271,129,128,127,126,126,128,124,126,0
12275,125,126,127,129,139,125,128,130,0
12279,126,126,125,129,139,126,125,128,0
12282,129,129,128,126,122,128,128,126,0
12285,129,128,127,126,131,130,131,127,0
12289,132,127,130,127,128,129,128,127,0
12292,129,127,128,127,132,127,131,128,0
12296,133,129,129,128,122,128,127,126,0
12299,128,128,127,128,123,128,125,128,0
12302,119,127,129,128,123,127,124,127,0
12305,127,128,129,128,124,128,129,127,0
12308,131,130,128,128,123,128,127,127,0
12312,123,128,128,128,128,128,125,127,0
12314,127,127,128,128,137,128,129,128,0
12317,121,125,125,129,140,127,128,128,0
12321,130,129,127,127,123,127,129,128,0
12324,132,128,128,126,136,127,127,128,0
12327,128,126,126,128,140,126,131,131,0
12329,128,125,123,129,137,126,127,129,0
12333,130,129,128,125,128,127,130,128,0
12338,131,128,127,125,125,128,129,128,0
12344,124,127,127,127,123,127,128,126,0
12349,132,127,127,126,121,128,129,127,0
12351,130,129,127,126,122,127,127,129,0
12354,124,128,128,128,132,128,126,127,0
12357,131,127,129,126,126,128,124,127,0
12360,123,126,126,129,137,128,127,127,0
12362,131,129,128,128,127,127,129,127,0
12365,133,128,128,126,123,128,129,126,0
12368,123,127,128,128,128,128,126,126,0
12370,128,123,125,128,135,124,128,131,0
12373,126,127,125,129,129,127,132,127,0
12376,134,129,128,126,122,128,131,127,0
12379,132,128,128,126,121,127,127,126,0
12382,129,127,129,128,131,129,126,126,0
12385,118,128,128,128,124,128,127,128,0
12388,131,129,128,127,137,127,128,127,0
12394,128,126,128,126,142,129,126,129,0
12397,125,126,126,129,137,126,128,128,0
12400,130,129,128,125,121,128,128,128,0
12403,133,129,128,128,124,127,128,129,0
12407,124,128,127,129,129,127,128,128,0
12410,130,127,128,129,137,128,127,127,0
12413,124,128,126,128,123,127,124,128,0
12418,132,129,128,126,125,128,124,130,0
12428,123,127,125,130,137,126,129,130,0
12434,126,126,126,128,135,126,130,128,0
12439,131,129,130,125,120,128,125,126,0
12444,126,128,129,128,125,128,128,126,0
12446,130,128,127,126,120,128,127,126,0
12449,132,127,128,128,123,127,130,126,0
12452,119,128,127,126,119,127,132,127,0
12455,128,129,128,128,122,127,127,127,0
12458,130,128,129,128,126,129,126,125,0
12461,125,127,127,128,127,128,130,130,0
12465,121,127,126,128,135,128,128,126,0
12468,128,129,127,128,125,128,126,127,0
12471,127,125,126,129,138,126,126,130,0
12473,126,126,126,129,137,127,128,130,0
12478,126,127,126,129,128,128,126,128,0
12481,131,128,128,127,122,128,127,127,0
12486,128,128,127,128,123,127,131,128,0
12489,132,127,127,126,126,129,125,128,0
12492,133,127,128,127,122,128,128,127,0
12495,127,127,130,129,129,129,126,127,0
12498,128,129,129,128,127,127,125,127,0
12511,128,127,128,128,132,128,128,127,0
12517,120,127,127,129,129,128,128,128,0
12521,126,129,127,127,127,127,125,126,0
12525,125,128,127,129,136,127,131,131,0
12529,129,126,123,128,136,126,128,130,0
12535,126,126,125,129,132,128,130,126,0
12538,132,129,129,128,119,128,128,125,0
12542,127,128,129,128,125,128,126,126,0
12545,130,127,127,128,123,128,125,126,0
12548,126,127,127,128,127,127,130,128,0
12551,127,129,127,126,123,127,132,128,0
12555,129,129,127,128,131,127,128,128,0
12558,129,128,128,126,127,128,124,125,0
12562,123,126,127,126,123,128,125,127,0
12565,129,130,128,127,126,127,126,127,0
12567,126,127,128,128,140,126,125,128,0
12570,123,127,127,128,124,129,123,126,0
12574,132,125,125,129,137,126,128,126,0
12579,130,129,127,126,122,127,133,127,0
12582,130,128,127,127,123,128,126,128,0
12586,124,127,128,127,123,129,124,128,0
12590,120,126,126,128,138,127,130,130,0
12595,125,128,128,127,122,128,131,128,0
12598,128,129,128,127,131,128,128,127,0
12600,130,128,128,127,121,127,128,127,0
12604,125,126,128,127,127,128,126,130,0
12608,129,128,129,128,135,128,126,128,0
12611,131,127,126,126,124,128,131,127,0
12615,122,127,128,128,124,129,126,129,0
12618,122,126,123,128,135,126,127,130,0
12621,123,127,128,126,124,128,132,129,0
12624,129,129,128,125,122,127,131,127,0
12628,130,128,129,128,123,128,127,126,0
12630,132,127,127,128,123,127,130,128,0
12635,126,128,128,127,124,128,125,127,0
12641,127,129,128,128,127,128,127,126,0
12646,129,128,127,128,130,128,126,127,0
12649,131,127,129,128,129,128,128,126,0
12652,126,128,128,128,128,126,130,128,0
12655,132,129,128,128,127,128,125,128,0
12658,128,127,127,128,121,128,128,131,0
12662,127,126,124,129,135,126,128,129,0
12666,123,126,126,127,121,128,132,127,0
12669,131,130,128,125,123,128,126,127,0
12672,128,127,130,128,124,128,127,127,0
12676,126,126,127,128,127,128,128,127,0
12679,123,125,128,128,125,127,128,128,0
12682,131,129,128,128,123,128,124,126,0
12686,125,126,128,127,124,129,127,128,0
12689,126,128,127,129,140,127,126,127,0
12693,124,128,127,126,123,128,130,128,0
12696,132,130,129,127,129,128,124,127,0
