Start Recording
10,128,127,124,128,128,127,128,129,0
15,127,126,124,128,125,126,127,126,0
19,125,127,133,129,125,127,127,128,0
23,130,129,127,127,129,128,129,130,0
26,127,127,124,125,128,130,127,129,0
30,123,127,124,126,126,128,128,126,0
34,123,127,133,129,126,128,129,129,0
38,132,128,127,128,129,128,129,129,0
41,129,129,123,126,128,128,128,128,0
46,128,127,124,126,128,128,127,128,0
50,127,127,128,128,128,128,126,128,0
53,127,128,127,127,128,128,128,129,0
57,129,128,125,127,127,128,129,125,0
60,127,129,134,128,126,126,128,125,0
66,124,128,132,127,125,130,128,129,0
70,130,128,127,128,128,128,128,128,0
73,133,128,125,126,129,128,128,128,0
77,125,125,126,127,129,129,129,128,0
80,125,127,124,128,127,128,127,128,0
83,129,128,130,126,127,126,125,128,0
87,127,128,126,127,127,127,128,127,0
90,122,127,134,130,125,127,129,126,0
94,123,128,133,127,125,126,127,129,0
96,131,128,125,127,128,128,127,128,0
99,133,128,128,128,127,127,126,129,0
102,126,128,125,126,129,130,129,128,0
105,125,126,127,127,130,128,128,128,0
108,128,129,125,128,128,128,127,128,0
111,132,128,126,128,128,128,127,127,0
133,126,127,127,128,129,127,128,128,0
139,122,127,134,127,126,126,128,126,0
143,123,127,125,127,128,128,129,129,0
148,131,128,127,128,128,127,126,128,0
152,126,127,128,128,130,128,128,126,0
156,127,126,124,127,126,127,128,128,0
159,126,128,129,128,127,128,127,128,0
162,127,128,129,129,128,126,128,127,0
166,131,127,127,127,128,128,129,128,0
169,119,127,126,128,129,129,129,128,0
172,124,127,129,129,128,127,129,127,0
175,128,129,129,129,129,128,127,128,0
178,125,127,128,128,126,126,129,124,0
181,128,129,135,128,126,125,128,125,0
183,123,128,132,128,125,128,127,128,0
188,132,129,128,128,129,127,127,127,0
192,131,126,128,128,128,128,127,127,0
195,126,124,126,127,130,127,128,128,0
198,130,126,127,127,130,127,128,128,0
201,130,128,128,129,129,127,126,127,0
204,121,128,124,128,126,126,128,126,0
206,124,128,134,129,125,126,127,126,0
209,124,127,125,125,129,128,127,129,0
213,130,129,127,128,129,130,129,129,0
216,126,127,126,128,129,128,125,127,0
219,132,128,127,128,127,127,127,127,0
221,122,124,129,128,129,128,127,128,0
224,130,129,130,128,129,127,128,127,0
227,131,127,126,128,125,128,127,128,0
231,130,127,125,126,128,128,128,127,0
235,129,126,131,128,129,127,129,128,0
238,127,128,124,128,128,128,126,128,0
249,130,128,126,127,125,128,128,128,0
253,122,127,127,126,127,127,128,125,0
256,126,129,134,129,126,126,127,126,0
259,126,127,126,128,128,128,128,128,0
263,131,127,125,127,126,128,129,128,0
267,127,128,126,128,127,127,128,126,0
271,123,128,132,128,126,127,127,129,0
273,132,128,125,127,127,128,127,128,0
284,132,128,126,128,129,128,127,127,0
287,131,126,127,125,129,129,127,128,0
290,128,126,126,130,127,128,125,127,0
293,127,129,127,128,127,128,126,128,0
300,128,128,129,129,128,128,127,128,0
304,125,126,129,128,127,127,128,125,0
307,121,128,132,128,126,127,127,130,0
310,134,128,126,130,128,128,128,128,0
319,132,128,126,127,128,127,126,128,0
322,129,126,129,127,129,128,128,128,0
326,125,126,129,129,126,126,127,126,0
329,128,128,128,127,127,127,126,128,0
333,131,127,127,127,129,128,126,128,0
336,132,127,123,127,129,127,128,127,0
339,125,127,125,127,126,127,126,128,0
341,131,128,126,127,126,128,126,128,0
345,129,128,127,129,126,128,129,130,0
347,121,129,135,126,126,126,128,125,0
364,122,127,131,131,126,127,127,128,0
368,132,128,128,127,128,128,127,128,0
371,132,129,127,127,128,128,129,128,0
375,127,127,123,126,127,127,127,127,0
379,119,126,127,128,129,130,129,128,0
382,131,128,125,127,127,128,129,130,0
386,128,128,123,127,127,128,128,128,0
389,125,128,124,126,125,126,128,128,0
392,128,128,128,129,126,128,129,129,0
396,125,128,125,128,129,128,129,128,0
399,129,129,124,128,128,128,129,129,0
405,122,129,131,128,127,126,127,125,0
409,123,127,133,130,126,126,127,125,0
412,124,129,122,123,129,128,126,128,0
416,134,129,126,129,128,128,129,129,0
428,129,127,125,127,128,127,127,127,0
434,124,126,129,128,126,127,127,129,0
438,129,127,124,126,128,128,128,128,0
442,132,128,126,128,128,128,126,128,0
445,129,127,130,130,126,127,126,127,0
449,127,126,120,123,128,128,128,128,0
453,126,127,124,127,126,128,128,128,0
457,129,128,127,127,126,128,126,127,0
461,129,128,127,128,128,128,128,126,0
465,125,129,131,128,126,126,127,125,0
467,121,129,131,129,129,129,128,128,0
471,131,128,125,127,128,128,127,128,0
474,129,128,129,128,126,127,126,127,0
478,130,127,124,128,127,128,128,126,0
481,122,129,131,127,125,128,129,129,0
486,131,129,125,126,126,128,127,128,0
489,129,128,126,127,126,127,127,127,0
492,129,126,127,127,130,128,127,125,0
495,124,127,131,128,126,126,126,128,0
500,133,127,128,128,128,128,127,128,0
503,126,130,125,127,129,128,129,129,0
506,125,128,123,128,128,127,129,127,0
509,125,127,128,127,128,128,128,128,0
518,126,127,128,127,128,127,129,127,0
521,130,127,125,128,129,129,128,128,0
525,125,127,128,130,126,126,128,126,0
528,125,127,133,128,126,126,127,129,0
532,131,128,127,127,129,129,129,129,0
535,131,128,126,127,125,128,128,126,0
540,130,128,121,124,129,128,127,127,0
545,128,128,126,127,129,128,128,128,0
551,129,128,125,127,127,128,129,128,0
557,131,127,127,127,126,127,127,128,0
564,130,128,127,127,130,127,127,125,0
567,126,128,130,128,126,126,126,127,0
572,129,129,127,126,129,127,126,128,0
575,132,128,128,127,130,127,127,128,0
578,128,126,125,127,125,127,127,125,0
581,123,128,130,127,127,125,127,127,0
585,131,129,127,128,129,128,129,129,0
588,130,128,125,127,127,128,127,128,0
592,128,128,129,127,130,128,126,127,0
596,126,126,128,128,128,127,126,128,0
598,127,128,129,127,129,127,128,128,0
601,126,127,131,127,129,127,126,127,0
604,122,128,131,128,126,126,127,125,0
607,123,127,131,129,126,127,126,127,0
610,130,128,126,124,129,130,129,128,0
613,133,128,124,126,126,128,128,129,0
616,128,129,128,127,128,127,126,127,0
620,126,126,126,126,128,128,129,128,0
624,128,128,128,128,128,128,126,127,0
630,128,129,129,128,127,126,127,126,0
634,129,127,128,128,125,125,128,125,0
639,125,127,133,129,125,126,127,127,0
642,122,127,129,126,126,128,128,129,0
645,130,128,124,123,128,128,129,129,0
648,129,126,123,128,127,128,128,128,0
654,123,128,125,127,126,127,126,128,0
651,132,127,127,127,127,127,127,129,0
666,127,128,127,126,129,128,128,128,0
669,127,126,127,128,128,126,127,128,0
675,124,127,131,129,128,128,127,126,0
678,121,128,128,127,125,126,127,127,0
681,123,127,127,128,129,127,129,128,0
685,130,129,125,127,125,127,129,128,0
688,131,126,124,127,126,127,129,128,0
691,130,129,127,127,127,128,126,128,0
703,130,129,130,128,129,127,128,128,0
707,125,128,125,125,129,127,128,128,0
710,128,126,133,129,126,126,128,125,0
714,126,129,133,127,126,127,128,129,0
717,136,128,125,126,128,128,127,128,0
721,134,129,126,129,127,129,127,128,0
724,123,128,125,128,126,127,128,128,0
727,124,128,127,127,125,128,128,129,0
730,132,129,128,128,127,126,126,128,0
734,128,128,128,129,126,127,127,127,0
740,123,129,134,129,125,126,129,126,0
744,124,128,132,128,126,129,127,129,0
747,129,129,126,128,131,128,129,128,0
750,128,127,123,127,127,128,127,127,0
753,128,127,132,131,126,127,126,128,0
756,126,126,125,125,129,128,127,127,0
758,129,128,129,128,127,128,126,127,0
761,126,128,131,129,127,127,126,127,0
765,120,127,132,130,126,126,128,126,0
776,123,128,130,128,126,127,129,129,0
781,132,128,125,128,129,129,127,128,0
784,133,126,127,127,128,128,126,127,0
789,123,127,126,127,128,128,126,128,0
794,122,126,124,127,127,127,126,127,0
798,130,129,130,129,129,129,128,128,0
801,130,127,124,127,128,128,129,128,0
804,130,127,124,128,126,127,128,125,0
807,125,128,133,128,125,127,126,127,0
811,131,129,124,127,129,128,128,129,0
814,132,128,124,128,128,128,127,127,0
817,129,124,128,129,125,129,127,127,0
821,129,127,127,127,127,128,129,130,0
824,125,129,125,126,127,128,126,129,0
827,131,128,128,127,126,127,128,126,0
830,125,128,131,128,126,127,128,125,0
833,123,126,132,128,125,127,131,129,0
836,133,128,124,126,129,128,128,128,0
850,133,128,127,126,129,128,129,129,0
855,130,127,124,126,128,129,129,128,0
859,129,127,126,127,129,128,128,127,0
862,130,127,131,128,129,128,128,128,0
866,128,128,126,125,127,127,128,128,0
869,125,126,127,129,128,127,128,127,0
873,125,127,125,126,128,127,126,128,0
876,126,127,131,128,126,125,127,127,0
885,124,128,130,127,125,127,128,127,0
888,129,127,126,127,128,127,128,128,0
891,122,126,124,127,129,128,129,129,0
895,128,127,125,127,127,128,128,128,0
898,130,128,129,127,128,127,127,127,0
900,130,127,126,127,127,128,126,127,0
905,129,128,129,126,126,126,129,126,0
911,126,130,130,127,125,127,126,127,0
920,131,129,127,127,127,128,126,127,0
924,129,127,124,127,127,127,128,125,0
927,125,127,133,128,125,126,128,126,0
933,122,127,124,127,128,128,126,129,0
938,129,128,125,127,127,128,127,129,0
941,131,128,127,128,126,127,127,127,0
945,131,128,129,128,126,126,128,126,0
948,120,126,124,127,128,128,126,128,0
951,130,128,126,127,127,128,128,128,0
954,129,127,124,127,126,129,127,127,0
957,126,126,127,125,125,126,127,125,0
959,125,127,135,131,125,128,129,129,0
963,131,129,126,128,128,128,128,128,0
966,131,128,130,130,128,127,126,127,0
969,127,126,124,127,127,129,127,127,0
972,128,128,127,132,127,128,128,128,0
976,128,127,129,127,130,128,126,128,0
979,130,128,129,129,125,127,126,127,0
982,124,128,132,128,126,126,128,126,0
985,123,128,130,129,127,128,126,127,0
988,130,129,128,126,128,127,127,128,0
991,131,128,128,129,127,127,127,128,0
993,125,127,127,128,128,127,128,127,0
996,128,126,126,128,129,128,129,128,0
1015,130,128,127,128,128,128,129,128,0
1020,124,129,126,128,125,125,129,127,0
1024,123,128,132,129,126,126,128,125,0
1028,123,127,132,129,126,128,128,128,0
1033,132,128,129,125,129,128,127,128,0
1037,133,128,127,127,127,128,127,127,0
1041,128,128,124,127,129,129,127,128,0
1044,116,127,127,128,127,128,127,128,0
1047,129,129,129,128,129,128,128,129,0
1050,130,127,130,126,126,126,127,127,0
1053,131,127,127,127,125,128,127,128,0
1056,124,127,120,125,127,128,129,128,0
1059,127,128,124,128,127,128,129,128,0
1063,132,128,125,124,127,128,129,126,0
1066,126,129,136,128,126,127,128,125,0
1069,124,128,130,128,126,126,127,129,0
1072,130,128,124,125,128,129,126,128,0
1075,131,128,125,126,129,128,128,129,0
1079,127,127,124,127,128,127,127,127,0
1088,128,127,125,128,126,126,127,125,0
1091,129,128,126,128,127,128,128,128,0
1095,130,128,130,128,129,128,129,128,0
1098,129,125,125,128,126,127,128,127,0
1101,122,128,134,128,126,126,127,127,0
1105,123,128,130,127,129,129,127,128,0
1108,131,129,128,128,129,128,127,128,0
1111,128,126,126,127,129,127,125,127,0
1125,126,127,128,128,126,127,126,127,0
1129,122,129,128,126,128,128,126,128,0
1133,127,129,129,125,129,128,129,129,0
1136,121,127,133,129,125,126,128,126,0
1139,125,127,133,130,126,126,127,128,0
1141,130,127,129,128,129,128,127,128,0
1145,131,129,121,127,129,128,128,128,0
1151,131,127,123,127,129,130,127,126,0
1161,126,126,129,128,126,126,128,127,0
1165,126,128,124,126,129,128,128,129,0
1169,129,129,125,129,128,128,128,128,0
1172,130,126,127,127,128,128,129,129,0
1176,129,126,125,128,127,129,127,127,0
1179,127,128,129,128,127,128,126,127,0
1182,130,128,129,127,128,128,126,128,0
1186,127,127,131,129,126,127,128,125,0
1189,129,128,131,129,125,126,128,125,0
1192,123,125,128,128,130,128,127,128,0
1199,129,128,129,128,129,128,128,129,0
1203,131,128,127,128,129,128,127,127,0
1206,128,126,127,128,126,127,129,127,0
1209,129,127,127,129,129,128,129,129,0
1212,130,128,125,126,129,128,129,129,0
1215,129,128,127,127,125,127,128,128,0
1219,129,126,125,129,129,128,128,128,0
1223,123,127,134,130,124,126,126,126,0
1226,134,129,122,124,128,128,127,128,0
1236,128,128,126,128,126,127,126,128,0
1241,128,127,129,128,129,128,127,128,0
1244,126,127,123,125,128,128,129,128,0
1247,127,128,125,127,129,129,129,128,0
1251,131,128,125,127,125,126,128,126,0
1254,126,129,131,128,126,126,128,126,0
1257,123,127,134,129,126,127,127,128,0
1260,134,128,126,123,130,128,128,128,0
1272,131,127,126,129,129,128,128,128,0
1276,129,127,124,128,127,128,128,128,0
1281,120,127,126,127,129,128,129,129,0
1286,130,129,124,127,128,128,129,129,0
1290,131,128,128,128,127,128,127,128,0
1293,133,125,126,128,129,126,127,128,0
1296,127,128,126,127,125,128,128,129,0
1299,127,129,127,127,127,127,127,129,0
1303,129,127,128,128,128,127,126,127,0
1307,121,129,136,128,126,126,128,125,0
1310,123,127,131,127,126,126,127,125,0
1314,129,128,130,128,128,128,127,129,0
1316,132,129,117,124,129,128,128,128,0
1319,130,127,123,128,129,128,129,129,0
1322,126,127,128,129,126,127,127,128,0
1327,131,127,126,127,129,128,129,129,0
1330,130,128,126,125,128,128,128,129,0
1333,128,127,125,127,127,127,126,128,0
1345,126,125,126,128,129,127,127,126,0
1349,125,125,130,128,126,126,125,128,0
1354,126,130,129,128,129,128,127,127,0
1358,121,129,132,129,126,127,128,125,0
1362,123,127,132,128,126,127,128,127,0
1366,123,127,129,127,130,129,127,128,0
1369,132,129,127,127,130,128,127,127,0
1372,131,128,128,128,129,128,128,128,0
1375,129,127,124,127,127,128,127,128,0
1378,126,128,128,128,127,128,126,128,0
1381,129,128,128,128,128,128,129,128,0
1391,132,127,127,128,126,128,126,126,0
1397,130,127,127,128,124,128,127,128,0
1402,129,127,129,128,126,127,126,128,0
1408,126,128,130,128,128,128,126,127,0
1411,123,127,135,128,125,126,129,125,0
1415,124,127,132,128,125,126,128,126,0
1418,120,126,126,127,127,128,127,129,0
1421,134,129,126,126,128,128,128,128,0
1424,132,128,126,128,128,128,129,128,0
1427,129,127,125,128,126,129,127,126,0
1430,121,125,128,126,130,128,126,128,0
1433,131,128,124,128,128,128,127,128,0
1437,131,128,127,128,127,127,127,128,0
1440,126,126,127,128,129,127,126,127,0
1445,128,128,128,128,128,128,128,129,0
1448,128,128,127,128,128,128,129,128,0
1451,126,127,124,127,129,126,128,124,0
1454,127,129,135,128,126,126,129,126,0
1457,122,128,128,126,128,130,128,129,0
1460,130,128,125,127,128,128,128,128,0
1463,129,128,126,128,129,128,129,128,0
1474,127,126,125,128,125,129,129,126,0
1478,126,127,124,125,129,128,128,128,0
1481,130,129,128,128,126,128,126,127,0
1484,129,128,128,128,127,127,126,127,0
1487,127,127,129,128,128,127,129,125,0
1490,125,129,135,128,126,126,127,127,0
1494,129,128,124,127,128,127,127,128,0
1497,128,128,128,127,129,127,126,127,0
1509,127,126,130,128,128,128,128,127,0
1513,125,124,128,127,129,128,127,128,0
1517,128,128,126,127,127,128,128,129,0
1527,128,128,125,127,126,128,127,128,0
1531,121,128,127,125,129,127,127,125,0
1535,127,128,135,128,125,126,127,126,0
1542,127,128,129,125,130,128,128,129,0
1551,130,127,125,126,126,128,127,127,0
1555,129,126,125,127,128,128,128,127,0
1558,123,125,124,127,129,128,125,128,0
1562,128,129,132,126,130,128,127,128,0
1565,124,128,126,126,127,128,125,127,0
1568,129,127,128,127,128,128,126,128,0
1572,125,127,127,127,128,128,125,127,0
1575,128,128,130,125,127,128,125,128,0
1579,126,128,128,125,128,128,123,127,0
1581,124,126,133,126,125,126,124,124,0
1584,126,128,134,126,125,126,124,126,0
1588,123,129,129,125,129,129,124,128,0
1591,130,128,125,120,128,128,125,128,0
1595,128,127,126,122,127,128,124,127,0
1598,128,127,125,121,126,128,123,127,0
1601,124,127,129,121,128,128,126,128,0
1604,130,127,125,123,126,128,124,128,0
1607,129,126,125,120,126,128,121,127,0
1610,127,127,127,120,126,128,124,128,0
1613,129,127,131,121,127,128,120,128,0
1622,127,128,130,120,127,128,123,128,0
1626,123,127,126,120,125,128,125,126,0
1629,127,128,128,121,123,127,124,125,0
1632,122,129,132,121,124,127,121,128,0
1638,130,128,128,118,127,130,124,127,0
1643,131,128,128,119,128,129,122,127,0
1646,130,127,127,118,127,129,122,128,0
1649,127,127,126,119,126,130,123,127,0
1653,129,128,130,120,127,129,123,128,0
1656,130,127,127,119,127,130,122,126,0
1659,124,128,132,118,124,127,124,125,0
1662,120,128,130,115,127,131,126,128,0
1665,130,129,128,116,126,130,123,128,0
1667,131,128,127,115,126,131,126,128,0
1670,128,128,123,113,125,131,124,127,0
1677,129,126,131,112,125,129,125,129,0
1680,128,128,129,114,125,128,124,128,0
1686,130,127,129,111,123,127,126,126,0
1689,124,128,133,114,126,127,126,126,0
1695,124,127,125,113,129,130,130,129,0
1700,131,129,129,116,130,130,129,129,0
1703,129,129,125,116,129,130,131,129,0
1707,129,128,124,118,130,130,131,127,0
1710,123,125,126,119,130,129,130,129,0
1714,131,129,126,123,128,127,128,129,0
1717,130,129,128,123,127,126,128,128,0
1721,129,126,127,124,131,126,131,125,0
1724,125,128,134,124,127,125,130,129,0
1728,132,129,126,127,130,127,130,128,0
1766,131,128,129,128,130,126,129,128,0
1776,129,127,126,128,129,127,132,125,0
1784,123,128,130,131,128,124,129,127,0
1792,131,128,130,130,131,126,133,128,0
1802,131,128,122,133,129,126,129,127,0
1808,129,128,126,132,126,126,131,127,0
1813,128,127,125,132,131,126,133,130,0
1816,128,129,124,136,126,126,133,129,0
1820,127,128,125,135,130,127,132,128,0
1823,121,125,132,135,127,124,131,125,0
1826,125,128,133,135,126,125,131,126,0
1830,130,128,125,135,130,128,132,129,0
1833,129,128,124,135,130,128,132,128,0
1836,127,127,127,137,131,128,131,127,0
1844,124,125,129,136,126,125,130,126,0
1847,127,129,125,138,130,128,132,129,0
1851,128,129,129,137,130,128,130,128,0
1854,126,125,127,137,130,128,132,128,0
1857,129,127,124,139,129,127,129,129,0
1861,132,127,126,138,129,128,129,129,0
1864,131,129,127,138,128,128,131,129,0
1867,128,127,124,138,127,128,130,128,0
1870,128,127,130,137,126,125,130,125,0
1874,124,127,130,136,128,128,129,128,0
1877,130,128,127,136,128,129,129,127,0
1880,130,128,125,136,126,128,129,127,0
1884,130,124,127,136,129,128,130,128,0
1887,126,129,125,135,127,127,128,128,0
1890,128,128,129,138,129,128,130,129,0
1894,123,127,125,136,125,125,129,124,0
1897,127,128,135,136,125,126,129,126,0
1900,122,128,127,134,129,128,129,128,0
1903,131,128,127,132,128,127,129,128,0
1906,130,127,124,134,128,128,129,125,0
1912,122,127,125,132,127,127,130,128,0
1917,127,128,127,135,127,126,129,127,0
1921,127,128,128,135,127,127,131,129,0
1925,128,126,127,135,127,126,130,127,0
1928,130,127,124,132,127,126,129,125,0
1932,125,128,136,133,124,124,130,129,0
1936,131,127,127,133,128,126,129,128,0
1939,129,128,126,133,128,126,131,127,0
1942,127,127,126,133,125,125,131,124,0
1946,126,128,133,132,123,128,131,129,0
1949,129,127,127,132,128,127,132,129,0
1953,131,129,124,131,128,127,130,128,0
1956,127,127,125,129,126,126,130,127,0
1959,128,128,130,132,125,124,128,127,0
1962,125,128,125,129,128,127,132,128,0
1965,130,128,126,131,128,127,132,128,0
1968,126,125,127,131,128,125,130,128,0
1991,124,127,125,130,129,127,127,129,0
1999,129,128,129,129,129,126,129,128,0
2007,125,127,127,130,127,127,129,124,0
2060,123,128,135,129,127,124,128,126,0
2071,124,129,129,129,125,127,131,129,0
2077,130,128,125,128,126,127,130,129,0
2082,128,128,127,129,129,127,127,128,0
2087,127,127,127,129,129,127,128,126,0
2130,120,128,127,129,125,128,126,128,0
2140,128,128,128,129,127,128,127,128,0
2151,124,128,127,130,128,127,129,126,0
2194,122,127,132,129,126,125,128,125,0
2205,123,126,130,128,126,128,130,129,0
2214,131,127,124,128,129,128,129,128,0
2219,132,127,129,128,128,127,128,128,0
2224,128,128,127,128,128,126,129,130,0
2264,121,128,128,128,130,126,130,129,0
2273,129,129,126,127,127,127,128,128,0
2281,132,130,129,128,126,127,125,127,0
2288,132,129,131,128,125,125,127,126,0
2295,124,127,130,127,126,126,130,129,0
2300,130,128,128,127,128,128,128,129,0
2305,129,128,125,127,130,128,130,128,0
2310,132,125,125,127,128,128,130,128,0
2313,121,124,128,128,129,128,130,129,0
2317,126,129,125,127,127,128,124,128,0
2320,130,128,131,129,129,128,128,127,0
2323,127,129,128,128,128,126,130,128,0
2327,125,126,126,128,129,127,126,127,0
2330,127,127,126,127,127,127,126,128,0
2333,125,128,132,129,126,125,128,125,0
2337,125,129,134,128,126,125,127,125,0
2340,125,128,132,127,127,126,127,127,0
2344,129,127,128,126,132,128,127,128,0
2347,132,129,127,127,129,128,125,127,0
2350,129,125,129,127,127,129,126,128,0
2354,124,126,128,127,129,128,126,128,0
2357,130,127,125,128,130,127,128,128,0
2363,133,128,126,126,126,127,128,127,0
2368,128,128,127,127,126,126,127,126,0
2371,122,128,132,128,126,126,127,126,0
2375,122,127,124,126,128,128,125,128,0
2378,131,128,127,127,129,129,125,128,0
2381,128,128,128,128,130,128,129,128,0
2385,130,126,124,127,127,128,126,127,0
2388,128,127,128,127,129,129,126,128,0
2391,127,127,125,128,128,128,128,128,0
2395,128,127,127,128,128,127,126,126,0
2398,124,128,133,127,126,124,127,125,0
2401,123,127,128,127,129,128,126,129,0
2404,128,128,124,126,129,128,127,129,0
2407,129,127,126,128,129,128,127,129,0
2411,125,126,124,126,126,128,127,127,0
2414,127,127,125,127,128,128,126,128,0
2419,133,129,127,127,126,128,126,128,0
2422,128,127,128,128,127,128,125,127,0
2426,129,127,124,128,129,128,128,127,0
2428,121,129,133,128,125,126,125,126,0
2431,124,129,126,126,127,128,129,128,0
2437,130,128,128,127,128,128,128,128,0
2440,127,127,126,126,130,126,128,125,0
2450,124,127,131,127,124,128,129,129,0
2454,132,129,125,127,131,129,129,128,0
2458,133,127,123,127,128,128,128,128,0
2462,127,124,130,127,128,129,126,128,0
2465,126,128,126,128,129,128,127,129,0
2469,129,128,126,128,128,128,128,128,0
2474,130,127,125,128,128,128,126,127,0
2480,123,127,125,127,128,128,128,127,0
2487,126,127,127,127,129,128,128,126,0
2490,128,128,134,128,126,125,127,126,0
2494,126,128,133,127,127,126,126,126,0
2531,125,129,132,127,127,126,128,125,0
2539,125,127,128,126,130,129,128,129,0
2547,133,129,129,125,129,128,126,128,0
2554,132,129,127,127,129,128,126,128,0
2558,129,126,123,127,128,128,127,128,0
2563,127,124,126,128,130,128,128,128,0
2568,129,128,125,126,127,128,126,128,0
2572,130,128,124,128,126,128,127,128,0
2576,130,126,125,128,126,127,129,128,0
2579,128,126,126,128,126,128,127,128,0
2583,127,128,126,128,126,127,127,129,0
2586,127,128,124,129,128,127,129,128,0
2590,126,126,126,128,129,128,127,124,0
2593,128,128,131,129,125,125,128,127,0
2596,123,128,126,127,129,128,129,129,0
2600,130,129,125,128,127,128,125,127,0
2603,128,128,126,128,126,128,126,124,0
2608,123,127,125,129,126,125,127,127,0
2611,124,128,125,128,131,129,128,128,0
2614,137,127,127,128,128,128,125,127,0
2618,131,125,128,129,127,128,127,127,0
2624,117,127,124,128,129,129,127,128,0
2628,127,128,124,127,128,128,129,128,0
2632,129,128,126,129,128,128,127,129,0
2637,124,128,133,128,126,126,127,126,0
2643,124,127,133,129,126,126,128,127,0
2648,120,128,125,127,128,129,129,130,0
2651,130,129,124,127,130,128,130,129,0
2654,129,127,123,128,131,128,130,127,0
2657,131,126,128,128,126,128,125,126,0
2661,135,128,131,128,127,129,126,128,0
2664,126,130,128,130,129,129,127,127,0
2667,127,128,128,128,126,126,128,126,0
2671,124,127,133,128,126,126,126,127,0
2674,129,127,124,127,127,128,129,128,0
2678,130,128,127,127,128,129,127,128,0
2681,126,129,128,128,129,126,128,129,0
2684,125,126,130,129,126,126,127,125,0
2687,123,128,125,127,129,129,127,129,0
2690,130,129,127,127,127,128,125,127,0
2693,132,128,127,127,127,128,126,127,0
2696,130,126,128,128,126,126,128,128,0
2699,127,127,126,128,127,128,125,128,0
2702,129,128,131,129,128,128,126,127,0
2705,128,127,129,130,128,126,127,126,0
2710,121,129,134,127,127,126,127,125,0
2713,122,128,127,127,130,128,127,129,0
2716,129,128,127,127,131,129,127,128,0
2733,131,128,126,128,128,127,126,127,0
2737,132,127,129,127,129,128,129,126,0
2741,129,127,124,128,128,128,129,130,0
2801,127,129,125,127,126,128,127,128,0
2812,128,128,130,128,125,127,127,125,0
2830,124,127,132,128,124,126,126,125,0
2840,123,126,134,127,127,129,127,128,0
2848,132,128,128,128,128,127,128,129,0
2855,127,129,126,127,131,128,127,128,0
2861,125,126,123,127,127,128,127,127,0
2867,128,127,127,128,129,129,126,127,0
2872,129,128,129,130,128,128,128,129,0
2876,126,128,125,127,127,128,128,127,0
2879,123,127,131,128,126,126,127,126,0
2883,124,127,131,128,125,127,131,129,0
2886,130,128,127,127,130,128,128,128,0
2889,134,127,127,127,128,128,127,128,0
2893,130,128,129,128,129,129,127,127,0
2896,126,125,124,127,128,128,129,128,0
2899,127,128,125,127,128,128,128,129,0
2903,130,128,124,127,127,128,128,128,0
2906,127,127,124,128,128,128,128,128,0
2910,122,127,134,127,126,124,126,126,0
2913,123,127,126,126,128,128,126,128,0
2917,131,129,129,128,128,127,127,128,0
2920,126,127,124,127,129,128,127,127,0
2924,127,127,125,126,129,129,129,129,0
2927,128,128,128,127,128,129,126,128,0
2930,128,129,129,128,126,129,127,127,0
2933,128,128,124,128,128,128,128,128,0
2936,120,128,133,128,126,125,128,126,0
2939,120,127,126,127,128,128,129,129,0
2942,132,128,125,126,127,128,125,127,0
2944,129,127,125,128,127,128,128,126,0
2947,128,128,127,128,129,128,127,128,0
2950,122,127,129,128,129,128,127,128,0
2953,129,127,130,126,129,128,126,127,0
2956,134,128,126,127,128,128,127,126,0
2962,125,128,132,128,126,126,128,126,0
2966,122,127,128,127,128,129,127,129,0
2970,132,129,129,127,128,128,127,129,0
2975,132,128,127,128,128,128,129,126,0
2980,132,124,130,128,127,128,128,127,0
2984,130,125,125,126,127,128,128,132,0
2987,123,130,125,127,127,128,127,128,0
2990,125,129,130,128,126,128,129,128,0
2993,127,126,125,125,128,128,129,127,0
2997,125,128,126,127,128,127,128,129,0
3000,130,129,126,127,125,127,127,126,0
3004,126,128,131,128,126,126,127,125,0
3007,123,128,133,128,125,126,128,126,0
3010,123,127,125,126,129,128,130,129,0
3014,133,128,124,126,128,128,127,129,0
3017,132,128,124,127,128,128,131,126,0
3020,124,127,129,128,127,126,126,126,0
3023,125,126,128,126,128,128,127,127,0
3026,133,128,130,128,129,128,127,128,0
3029,129,128,130,128,130,128,127,129,0
3031,125,128,128,128,131,127,129,128,0
3035,128,125,128,127,128,128,127,127,0
3038,130,127,129,129,128,128,127,126,0
3040,128,129,128,128,126,127,127,129,0
3045,127,127,127,128,125,129,127,127,0
3052,120,128,132,129,125,126,126,125,0
3055,129,129,125,128,128,128,128,129,0
3058,131,128,126,128,128,128,128,127,0
3062,131,127,128,128,126,128,127,128,0
3066,119,128,128,128,128,128,126,128,0
3069,129,129,126,127,126,128,127,129,0
3073,129,129,128,128,127,128,127,127,0
3078,129,127,127,128,128,128,127,125,0
3083,127,129,135,128,126,126,126,126,0
3086,122,128,125,127,127,129,127,129,0
3089,129,128,126,127,128,128,127,125,0
3092,124,126,129,130,127,126,127,125,0
3096,124,127,133,129,126,127,128,129,0
3099,130,127,126,127,129,129,128,129,0
3103,130,129,127,127,128,129,128,128,0
3106,129,126,123,127,128,130,128,128,0
3109,128,127,128,128,129,130,129,129,0
3115,130,128,126,128,127,128,127,127,0
3119,132,127,129,128,126,127,126,127,0
3122,130,125,130,129,126,127,127,128,0
3125,116,129,132,128,126,127,126,130,0
3128,130,128,127,127,128,129,126,129,0
3131,128,129,129,128,129,128,128,128,0
3135,130,127,124,127,127,130,128,128,0
3138,129,125,124,128,129,128,127,129,0
3141,126,129,128,127,128,129,128,128,0
3144,131,128,124,127,126,128,128,128,0
3148,129,126,125,128,128,129,128,126,0
3151,124,127,134,130,125,126,127,126,0
3154,123,127,126,126,129,129,129,129,0
3158,129,129,124,127,129,131,129,129,0
3161,127,128,125,128,127,127,127,127,0
3166,130,125,124,127,128,129,128,128,0
3169,130,127,124,127,128,128,129,130,0
3172,130,129,125,127,127,127,126,127,0
3176,130,128,130,129,125,126,127,126,0
3179,124,127,131,128,126,126,128,126,0
3188,130,128,126,128,129,128,129,128,0
3183,126,126,129,127,128,129,126,128,0
3192,131,129,128,129,124,128,128,128,0
3196,128,127,125,127,128,130,130,128,0
3200,128,127,125,126,127,128,129,129,0
3203,128,128,124,127,128,127,129,128,0
3206,125,128,131,128,128,127,126,127,0
3210,133,128,128,127,129,126,128,126,0
3213,123,128,134,128,125,125,127,129,0
3216,126,130,123,126,129,129,129,129,0
3219,129,127,124,126,128,129,129,128,0
3222,122,126,126,127,129,128,129,128,0
3225,128,126,124,128,128,128,129,128,0
3230,128,127,124,127,127,127,128,128,0
3232,131,126,126,127,128,128,127,125,0
3235,130,128,132,127,124,126,127,125,0
3239,125,129,132,127,126,128,129,131,0
3242,128,129,124,127,129,128,128,129,0
3246,129,127,124,126,126,128,127,126,0
3249,129,125,127,128,130,127,129,127,0
3252,127,127,124,127,127,129,129,129,0
3255,129,130,124,126,127,128,128,129,0
3258,127,129,128,127,129,128,126,127,0
3261,129,128,127,127,129,128,127,124,0
3264,127,127,131,128,126,126,127,127,0
3266,133,129,128,127,129,128,127,128,0
3272,130,129,128,128,129,129,126,128,0
3275,126,127,124,127,126,126,129,127,0
3278,118,127,132,128,126,126,127,126,0
3280,128,127,126,127,129,128,127,128,0
3285,131,129,126,127,129,128,128,126,0
3289,124,128,129,128,129,128,129,127,0
3295,128,126,125,128,129,128,127,128,0
3298,127,128,127,127,129,128,127,129,0
3301,128,129,124,127,127,127,129,129,0
3304,128,127,126,125,127,127,127,125,0
3306,121,130,132,128,126,126,128,127,0
3309,124,128,126,127,129,128,127,128,0
3312,132,128,126,127,128,127,127,127,0
3315,125,128,128,127,130,128,127,128,0
3319,126,127,126,127,129,127,126,128,0
3322,128,128,127,125,129,128,129,129,0
3326,129,127,125,127,126,125,128,126,0
3329,127,128,131,127,126,126,129,125,0
3331,125,127,129,128,125,126,127,128,0
3334,129,128,128,126,129,128,129,129,0
3337,133,128,128,127,130,128,129,128,0
3340,130,127,126,126,129,128,126,127,0
3343,127,126,124,125,127,128,128,128,0
3346,128,128,127,126,129,127,127,128,0
3354,128,128,131,128,129,127,128,128,0
3358,127,124,128,126,124,126,126,127,0
3362,125,127,127,128,126,126,129,127,0
3365,119,128,128,128,128,128,130,129,0
3371,131,129,125,126,127,128,129,129,0
3374,130,128,127,128,129,128,127,126,0
3377,131,127,128,128,131,126,128,125,0
3380,121,128,129,128,129,128,129,129,0
3383,131,128,126,126,129,128,128,128,0
3387,132,127,128,129,127,126,127,125,0
3390,123,127,131,128,127,126,128,125,0
3393,122,124,125,128,130,128,127,128,0
3397,131,128,129,128,129,130,130,128,0
3403,134,128,125,125,128,128,127,128,0
3406,128,127,127,128,127,127,126,127,0
3410,127,127,126,128,129,128,131,128,0
3413,129,128,126,127,127,127,130,129,0
3417,127,127,125,128,127,128,127,128,0
3420,129,125,127,130,126,126,129,126,0
3423,122,128,131,129,125,130,127,128,0
3427,130,128,125,128,128,128,127,127,0
3430,129,127,124,126,127,127,126,129,0
3433,125,128,128,128,129,128,128,126,0
3436,123,128,132,129,126,127,125,127,0
3440,132,128,130,128,128,128,126,126,0
3443,138,127,124,127,127,127,126,128,0
3448,125,129,125,128,128,128,128,128,0
3452,130,126,126,128,128,128,125,128,0
3455,128,130,130,129,129,128,127,129,0
3458,127,126,126,129,129,128,126,126,0
3461,125,127,132,129,126,126,128,126,0
3465,124,127,131,129,126,126,126,128,0
3469,129,129,129,127,129,128,129,128,0
3472,130,127,123,127,128,130,131,126,0
3475,121,128,129,128,131,128,129,128,0
3478,127,126,123,128,130,128,130,129,0
3481,128,128,126,127,127,128,127,128,0
3484,128,128,128,128,128,127,127,127,0
3487,127,126,126,128,126,126,128,124,0
3490,127,128,132,128,125,125,128,126,0
3493,128,128,126,127,128,128,128,129,0
3497,128,129,123,127,131,130,129,129,0
3504,128,126,124,127,128,128,130,128,0
3508,127,127,124,127,127,128,126,127,0
3511,127,129,129,130,129,128,126,129,0
3514,127,126,125,127,130,127,126,127,0
3517,128,127,128,128,128,126,127,124,0
3520,126,128,131,128,127,126,127,126,0
3522,121,129,126,126,127,128,127,128,0
3525,132,129,128,127,129,128,126,127,0
3528,129,126,129,127,126,128,128,128,0
3532,127,127,126,127,131,128,129,128,0
3535,125,128,126,128,129,128,127,128,0
3539,134,128,126,127,126,127,127,127,0
3543,129,128,126,128,127,127,126,129,0
3546,120,127,130,129,125,126,129,126,0
3549,123,128,129,127,129,128,130,129,0
3552,132,129,126,127,128,127,126,128,0
3557,129,128,126,128,127,127,127,128,0
3561,131,127,129,128,128,128,128,128,0
3564,125,126,131,128,129,127,127,128,0
3566,130,125,132,128,126,127,129,128,0
3569,122,129,132,128,127,126,128,127,0
3574,125,127,129,128,126,128,130,128,0
3577,130,128,126,127,128,129,130,129,0
3580,132,129,125,127,127,128,129,129,0
3583,130,128,127,128,129,128,129,128,0
3586,123,126,128,128,126,126,126,127,0
3591,122,127,126,127,131,128,128,128,0
3594,132,128,126,129,128,128,128,128,0
3598,133,127,125,127,128,129,126,129,0
3603,121,129,126,127,129,128,127,127,0
3608,125,128,127,127,127,128,128,129,0
3613,131,129,126,127,126,127,127,127,0
3617,130,128,127,127,127,127,127,125,0
3619,124,128,132,128,126,125,128,126,0
3623,122,127,131,127,125,128,128,129,0
3626,130,128,125,127,128,128,128,128,0
3629,131,128,127,127,128,127,127,128,0
3633,128,127,127,127,129,127,129,128,0
3635,131,126,129,128,128,128,128,128,0
3638,130,127,127,130,129,128,129,128,0
3641,129,127,126,127,128,128,129,128,0
3646,126,126,128,128,125,126,128,123,0
3648,129,127,133,128,126,126,129,130,0
3653,127,129,125,126,129,128,129,129,0
3656,129,129,124,129,127,128,128,126,0
3659,127,125,125,127,128,127,129,128,0
3662,129,127,125,128,127,127,127,128,0
3665,129,128,128,127,127,128,129,125,0
3668,124,128,133,128,125,126,127,125,0
3672,127,128,130,129,127,126,127,126,0
3676,125,126,127,127,129,129,126,128,0
3679,134,129,125,126,129,128,128,129,0
3685,129,128,125,127,127,127,128,130,0
3689,128,128,126,128,127,127,127,128,0
3692,119,127,128,127,129,127,128,128,0
3695,131,128,128,127,127,128,125,127,0
3699,130,128,129,127,128,128,127,126,0
3702,121,127,127,128,126,127,127,127,0
3706,127,125,129,128,125,126,126,125,0
3710,121,128,130,127,128,128,127,128,0
3716,134,129,128,128,129,128,128,128,0
3718,132,125,126,128,129,127,127,128,0
3721,123,128,127,129,129,126,127,127,0
3725,130,129,126,127,128,128,127,128,0
3729,128,128,126,127,127,128,129,128,0
3732,123,129,126,126,129,129,127,128,0
3735,129,127,125,127,127,126,127,126,0
3737,124,128,130,129,126,126,127,129,0
3741,127,130,124,126,127,128,128,129,0
3744,124,127,127,127,126,128,127,127,0
3747,133,126,129,128,126,126,127,125,0
3750,128,127,130,127,128,128,127,128,0
3753,132,128,125,126,128,128,126,128,0
3756,127,127,127,128,128,128,129,125,0
3759,121,124,124,127,128,129,127,128,0
3762,128,127,124,126,126,128,128,128,0
3765,136,129,126,127,126,127,128,128,0
3768,129,127,127,128,128,129,128,127,0
3770,127,126,124,127,129,128,128,125,0
3773,122,129,132,128,126,126,126,127,0
3777,133,128,126,127,127,128,125,127,0
3780,132,127,125,127,127,128,128,126,0
3783,123,129,131,128,126,127,127,127,0
3786,122,127,130,127,129,128,127,128,0
3789,131,128,124,127,129,128,128,129,0
3792,134,127,125,128,126,127,126,127,0
3796,133,126,129,127,129,128,128,128,0
3800,126,128,124,126,126,128,128,128,0
3810,128,127,131,129,126,126,127,125,0
3805,128,128,131,128,129,128,127,129,0
3817,126,128,132,128,126,126,127,126,0
3820,122,126,125,126,128,129,128,129,0
3823,128,130,125,127,128,128,129,129,0
3826,128,128,126,127,127,128,127,127,0
3830,130,128,126,127,128,127,127,128,0
3833,124,128,128,128,128,129,127,128,0
3836,127,128,129,129,128,127,127,127,0
3840,130,126,128,129,128,127,127,128,0
3843,131,125,124,129,128,128,127,127,0
3846,117,130,132,129,126,126,127,130,0
3848,130,129,125,127,129,128,129,129,0
3851,130,126,125,128,128,128,129,127,0
3855,127,127,127,128,125,128,129,125,0
3858,124,127,133,129,125,127,127,128,0
3861,132,128,125,127,129,129,129,129,0
3865,130,128,125,127,127,128,127,128,0
3868,124,125,126,127,127,127,128,127,0
3872,129,127,127,128,126,128,128,129,0
3875,128,128,129,127,126,127,127,127,0
3877,130,128,128,127,124,128,127,128,0
3880,124,126,130,129,126,126,127,123,0
3883,128,127,131,129,126,126,126,126,0
3886,131,129,128,127,129,129,127,129,0
3888,127,128,124,127,128,128,128,128,0
3891,128,127,124,129,128,130,129,127,0
3893,122,127,131,130,125,125,127,128,0
3896,130,128,126,127,128,128,126,128,0
3900,131,128,125,127,128,127,127,127,0
3907,130,127,127,127,129,128,127,129,0
3910,123,126,131,128,126,126,126,127,0
3913,126,128,125,127,128,128,125,128,0
3916,129,128,126,127,128,129,126,127,0
3919,126,127,127,127,127,127,128,129,0
3923,124,127,125,127,128,127,129,125,0
3926,126,127,127,127,128,128,127,128,0
3930,133,126,124,128,128,127,128,128,0
3933,123,128,132,127,126,126,127,126,0
3937,122,129,132,128,126,126,128,128,0
3940,129,127,129,127,129,128,126,128,0
3944,131,128,126,126,127,128,128,128,0
3946,128,128,128,129,127,127,126,127,0
3949,127,127,125,127,126,127,129,129,0
3954,130,129,124,126,126,127,128,130,0
3958,130,128,125,127,126,127,127,128,0
3961,129,127,126,126,126,128,128,128,0
3966,127,126,126,127,127,128,128,127,0
3970,129,126,129,128,127,128,124,127,0
3974,128,129,130,128,129,128,128,129,0
3977,125,129,130,127,126,126,127,125,0
3981,122,128,132,128,126,126,128,125,0
3984,128,128,128,128,130,129,127,128,0
3988,131,128,126,127,130,129,128,129,0
3991,129,127,124,126,127,128,130,128,0
3995,131,126,125,127,127,129,127,127,0
3998,129,126,125,127,128,128,127,128,0
4000,130,128,129,128,129,128,128,128,0
4003,129,126,125,127,129,128,127,128,0
4008,130,127,131,130,125,125,127,125,0
4015,123,128,132,128,125,128,128,128,0
4021,130,128,125,127,128,128,126,128,0
4024,130,127,126,128,125,128,131,127,0
4027,131,128,127,128,125,128,127,126,0
4030,126,126,129,128,129,128,126,127,0
4032,132,128,132,128,127,128,126,126,0
4036,136,125,134,128,124,126,127,124,0
4039,122,130,130,127,126,126,129,126,0
4042,118,128,128,127,129,128,126,129,0
4046,130,127,128,127,128,128,126,127,0
4049,130,127,126,127,129,128,127,128,0
4053,125,127,127,127,129,127,126,127,0
4056,126,127,124,127,128,130,128,128,0
4059,130,128,127,127,126,128,128,128,0
4062,131,128,126,127,125,127,127,125,0
4066,121,125,124,127,127,128,128,128,0
4069,131,127,126,127,127,128,126,128,0
4072,129,128,128,127,127,127,127,128,0
4075,129,129,125,127,126,127,128,124,0
4078,128,128,134,128,125,126,127,125,0
4081,124,128,130,127,125,128,128,128,0
4085,133,128,129,127,128,128,127,128,0
4088,132,129,128,127,129,129,128,129,0
4090,125,127,124,128,129,127,126,127,0
4093,125,126,128,128,127,128,126,127,0
4096,130,129,128,127,128,128,127,128,0
4100,130,128,129,128,128,128,128,126,0
4104,124,128,132,127,127,126,128,126,0
4106,123,127,130,128,125,129,128,129,0
4114,131,127,123,127,131,128,128,129,0
4120,131,127,125,127,128,129,127,128,0
4124,130,126,126,128,129,128,126,126,0
4130,129,126,129,128,125,127,127,127,0
4133,131,129,128,128,128,129,128,129,0
4136,133,128,126,127,129,129,129,129,0
4140,122,128,127,129,126,126,128,126,0
4143,122,129,133,128,127,126,126,128,0
4146,130,129,129,127,129,129,127,129,0
4150,130,129,127,127,129,128,128,127,0
4153,134,128,128,127,129,128,128,127,0
4157,132,126,125,127,129,128,129,129,0
4160,125,126,125,127,128,128,128,128,0
4164,130,128,126,127,126,127,127,128,0
4168,131,127,127,128,127,128,127,126,0
4173,123,128,134,129,125,126,127,126,0
4177,122,127,128,126,129,127,126,127,0
4180,132,129,129,127,128,128,127,128,0
4184,128,128,126,127,128,129,127,127,0
4187,128,127,126,127,129,130,127,128,0
4190,125,129,124,127,127,127,128,128,0
4194,131,129,127,127,128,128,127,128,0
4197,130,128,126,127,126,125,126,125,0
4200,124,127,133,127,126,126,129,127,0
4203,118,128,129,127,129,129,128,128,0
4206,129,128,127,127,128,129,128,128,0
4209,129,128,127,127,131,128,129,128,0
4212,129,127,128,128,125,127,127,127,0
4215,131,127,125,127,127,128,128,128,0
4218,130,129,127,127,127,128,126,129,0
4223,125,129,130,128,129,126,127,126,0
4228,127,127,131,129,125,126,128,126,0
4232,124,126,125,126,128,128,128,128,0
4235,131,128,125,127,126,128,128,129,0
4238,125,129,126,126,127,128,127,128,0
4241,128,126,124,128,128,126,128,125,0
4244,124,128,130,128,128,127,126,128,0
4247,131,128,125,127,128,128,128,129,0
4250,130,128,125,127,126,128,127,127,0
4259,127,124,128,127,127,128,127,127,0
4262,128,127,130,128,130,128,128,129,0
4267,131,129,124,127,127,127,127,128,0
4270,129,128,128,128,129,127,126,127,0
4276,127,127,130,128,126,125,128,126,0
4280,122,128,131,128,125,126,127,127,0
4283,135,128,127,127,128,129,127,128,0
4287,131,129,128,128,128,128,127,128,0
4290,123,127,127,127,127,128,126,128,0
4293,125,127,128,127,128,128,128,128,0
4296,130,129,128,127,127,128,127,127,0
4300,130,128,129,129,125,126,127,126,0
4303,125,128,132,128,126,126,128,126,0
4306,122,127,131,129,126,129,128,130,0
4309,126,130,127,127,129,128,130,129,0
4312,132,128,124,127,127,128,128,128,0
4315,125,128,124,127,127,128,127,128,0
4319,127,128,124,127,128,128,128,129,0
4322,131,129,125,126,127,128,128,129,0
4325,129,127,124,127,126,127,128,129,0
4330,127,127,125,127,128,128,127,127,0
4337,123,127,127,129,125,126,128,126,0
4342,128,126,126,127,129,128,129,129,0
4345,131,128,123,127,129,128,127,128,0
4348,124,128,127,127,128,127,127,128,0
4352,127,127,124,126,127,127,127,128,0
4355,135,127,130,128,127,128,127,127,0
4358,132,127,129,127,126,127,127,127,0
4361,122,130,135,127,126,126,127,126,0
4365,125,129,133,128,126,126,128,126,0
4368,122,129,128,127,129,128,127,128,0
4371,130,129,126,128,130,128,128,129,0
4375,126,126,123,127,129,130,129,130,0
4378,125,127,123,128,129,128,129,129,0
4381,127,126,124,126,127,127,129,128,0
4384,131,128,130,128,128,127,128,128,0
4387,123,127,126,128,124,127,127,128,0
4390,120,127,131,129,125,126,128,125,0
4394,124,129,129,127,129,128,127,128,0
4398,135,128,128,128,129,128,127,127,0
4401,136,127,128,127,130,127,126,127,0
4404,127,127,127,128,124,127,127,128,0
4407,128,129,127,127,128,128,126,128,0
4410,127,129,132,128,127,128,126,127,0
4412,130,128,129,126,123,126,128,125,0
4416,129,128,133,128,126,126,127,126,0
4419,123,126,126,127,128,129,129,129,0
4423,130,128,126,126,127,128,128,129,0
4428,130,127,123,126,127,128,127,128,0
4432,128,128,128,128,126,127,128,128,0
4436,127,127,126,127,128,127,126,128,0
4441,132,128,127,127,126,128,125,127,0
4446,130,128,128,126,125,128,128,130,0
4449,124,127,124,126,127,129,129,128,0
4453,128,127,125,127,127,128,127,128,0
4456,128,129,130,128,129,127,128,129,0
4459,124,128,132,129,126,126,129,124,0
4461,129,128,133,129,125,126,127,125,0
4464,122,127,129,127,129,129,128,129,0
4467,129,129,126,127,127,128,126,127,0
4469,132,126,127,128,129,130,128,127,0
4472,132,125,124,127,130,128,130,130,0
4475,122,130,125,127,127,128,127,128,0
4478,130,129,128,127,128,128,127,128,0
4481,125,128,130,127,129,127,127,125,0
4484,125,127,132,129,125,126,129,125,0
4487,122,128,131,128,129,128,126,128,0
4490,129,130,126,125,128,129,128,129,0
4492,131,128,125,127,129,128,129,129,0
4495,130,127,126,127,126,128,130,125,0
4498,125,127,125,127,126,127,127,128,0
4501,131,128,128,128,127,127,126,127,0
4504,131,127,126,126,127,127,127,127,0
4507,128,126,123,128,128,128,129,128,0
4510,119,128,132,128,125,126,127,128,0
4514,130,128,131,126,129,129,128,128,0
4516,131,129,124,127,127,128,128,128,0
4519,126,126,125,128,129,128,130,126,0
4522,122,128,131,128,126,126,127,126,0
4526,125,126,126,128,129,128,128,128,0
4530,131,128,127,128,128,128,127,127,0
4535,129,126,123,128,127,128,127,127,0
4540,128,127,127,126,127,128,128,128,0
4545,127,127,131,128,129,128,128,128,0
4549,129,128,127,126,129,128,128,127,0
4552,130,128,125,127,126,128,128,125,0
4556,125,128,131,129,126,126,127,126,0
4563,123,128,126,127,128,128,128,128,0
4568,133,128,125,128,128,128,129,128,0
4572,128,127,124,127,128,127,126,128,0
4576,122,127,126,128,129,126,128,128,0
4580,123,128,123,127,127,128,128,128,0
4584,130,128,125,127,126,127,127,127,0
4587,130,127,131,129,126,126,127,127,0
4590,123,128,133,128,125,126,128,126,0
4594,120,127,127,126,128,129,129,129,0
4598,128,129,126,128,129,128,128,128,0
4601,131,127,125,127,129,127,128,126,0
4604,125,127,129,128,126,127,127,127,0
4608,128,128,127,128,129,127,127,129,0
4611,130,129,130,126,129,128,127,128,0
4614,130,128,127,129,129,128,127,127,0
4617,131,128,130,129,129,128,129,127,0
4620,125,126,130,128,127,128,125,128,0
4623,127,128,132,129,129,128,126,126,0
4625,126,126,128,129,124,127,127,125,0
4628,124,129,133,127,126,127,127,126,0
4632,126,127,127,129,129,128,128,129,0
4634,132,128,125,127,128,128,127,129,0
4637,130,128,127,126,129,128,128,127,0
4641,127,127,125,127,129,126,126,126,0
4645,121,127,126,127,128,127,127,129,0
4650,127,128,126,127,128,128,127,128,0
4654,126,127,130,128,129,126,127,126,0
4657,122,127,130,128,126,125,127,125,0
4660,124,124,126,128,129,128,127,128,0
4663,133,128,127,127,126,128,127,130,0
4666,123,129,124,127,128,128,127,128,0
4670,126,126,125,127,128,126,127,128,0
4673,127,128,126,127,126,128,126,128,0
4676,131,128,129,128,128,128,127,128,0
4678,128,128,125,127,127,128,126,128,0
4681,122,127,131,128,125,126,127,126,0
4684,124,127,133,128,125,127,128,128,0
4687,130,128,127,127,128,128,126,128,0
4690,129,127,125,127,127,128,126,127,0
4693,130,127,128,128,129,127,129,127,0
4696,125,126,126,125,129,128,129,128,0
4700,136,127,125,127,128,127,129,128,0
4703,131,127,125,128,126,126,127,128,0
4706,116,128,131,128,126,126,128,125,0
4709,122,128,131,128,125,126,126,128,0
4711,132,129,127,127,128,128,126,128,0
4714,130,128,126,126,129,128,129,129,0
4717,125,126,123,127,129,128,129,128,0
4721,122,127,127,128,128,127,127,128,0
4725,127,128,128,128,129,128,127,129,0
4729,128,127,128,128,128,128,127,128,0
4732,129,127,130,126,126,128,127,127,0
4736,126,126,135,129,126,126,128,125,0
4740,126,126,126,127,128,129,128,129,0
4743,121,131,128,127,127,129,126,127,0
4748,131,125,128,128,128,127,126,128,0
4755,115,128,132,128,126,126,128,126,0
4761,122,128,126,127,128,128,129,129,0
4766,131,129,128,126,128,128,128,129,0
4769,124,126,124,127,128,127,129,128,0
4772,130,123,125,128,128,128,128,129,0
4776,124,127,125,125,129,128,128,129,0
4779,131,128,127,126,126,127,127,127,0
4781,129,127,128,128,129,128,127,127,0
4784,131,126,127,128,126,126,127,125,0
4787,124,128,132,129,125,128,127,128,0
4790,133,129,128,127,126,128,127,127,0
4794,131,128,129,127,129,128,126,127,0
4797,128,124,127,127,127,126,130,128,0
4800,125,128,128,127,129,128,129,129,0
4803,130,128,127,127,128,128,127,128,0
4805,131,127,123,129,126,126,127,123,0
4808,127,127,132,127,127,127,128,127,0
4811,124,129,131,128,130,129,128,130,0
4814,127,129,126,128,129,129,128,130,0
4816,128,128,123,125,128,128,128,128,0
4819,130,126,128,128,126,126,127,126,0
4822,125,127,129,126,132,128,127,128,0
4825,131,127,127,129,129,127,127,128,0
4828,122,130,128,128,129,128,127,129,0
4831,128,126,126,126,129,128,128,126,0
4835,122,128,125,127,129,128,127,129,0
4840,129,128,126,126,129,128,129,129,0
4843,127,129,123,127,125,127,128,126,0
4846,125,127,134,128,126,125,129,125,0
4851,124,127,130,128,129,128,128,128,0
4856,128,128,126,128,128,128,128,129,0
4859,130,127,124,127,127,128,128,127,0
4868,130,126,128,128,129,128,130,127,0
4873,126,128,127,128,128,128,126,127,0
4877,130,127,129,128,126,127,126,127,0
4880,130,129,131,128,127,127,127,129,0
4883,119,129,134,127,126,127,129,127,0
4888,122,127,131,129,125,127,127,130,0
4891,130,128,126,127,128,128,126,128,0
4896,129,129,130,128,129,128,127,127,0
4899,129,126,128,127,128,126,129,128,0
4902,127,128,126,127,126,127,127,128,0
4905,129,128,129,126,128,127,127,127,0
4908,129,127,131,128,128,128,125,127,0
4911,126,127,127,125,128,128,128,128,0
4916,126,126,124,128,128,128,128,129,0
4919,130,128,126,127,126,127,128,127,0
4922,124,125,130,129,126,126,127,125,0
4925,124,129,131,130,127,126,127,125,0
4928,122,128,132,128,126,128,129,128,0
4932,130,128,127,128,129,128,128,128,0
4935,129,128,127,128,129,128,126,128,0
4938,126,127,127,128,130,128,127,127,0
4941,124,126,128,128,127,128,127,128,0
4945,127,129,125,127,128,128,129,129,0
4948,133,127,125,127,126,128,128,127,0
4951,132,125,126,125,127,128,127,128,0
4955,125,126,124,128,128,128,129,128,0
4958,127,128,125,126,128,128,128,129,0
4961,126,129,127,127,126,128,127,128,0
4965,128,129,126,128,129,128,128,126,0
4969,125,128,135,128,126,126,127,126,0
4976,124,127,127,127,129,128,126,128,0
4979,129,128,126,128,130,127,126,127,0
4982,129,125,127,128,125,127,127,128,0
4985,121,126,129,128,125,126,128,126,0
4988,123,127,126,126,126,128,128,128,0
4991,130,129,127,127,128,128,127,127,0
4995,129,128,126,127,131,128,127,126,0
4998,120,128,132,129,126,126,128,126,0
5001,123,127,124,125,129,128,129,129,0
5005,130,128,126,127,130,129,129,128,0
5008,131,127,124,125,128,128,129,128,0
5011,127,126,126,127,129,130,129,128,0
5014,127,128,125,126,127,127,125,127,0
5017,130,128,132,128,127,127,127,128,0
5020,124,128,126,128,129,128,129,126,0
5024,121,128,131,128,124,126,127,126,0
5027,123,127,128,126,128,129,126,128,0
5030,132,128,127,127,128,128,126,128,0
5033,134,128,127,127,127,128,130,128,0
5037,127,124,128,127,128,129,126,128,0
5040,124,128,125,125,129,129,128,130,0
5043,128,130,126,127,127,128,126,128,0
5046,130,128,127,128,128,128,127,128,0
5050,127,127,133,129,126,125,128,125,0
5053,123,127,132,129,126,128,128,129,0
5056,131,128,123,127,128,128,129,129,0
5059,132,126,123,128,129,128,129,128,0
5061,128,127,123,127,126,128,126,127,0
5064,129,127,125,127,128,127,127,128,0
5067,128,129,130,128,126,128,126,128,0
5071,123,126,126,127,126,127,127,128,0
5077,123,127,124,127,127,128,127,127,0
5081,129,125,129,129,126,126,128,126,0
5084,125,127,130,129,125,127,127,127,0
5088,134,127,131,126,129,128,128,129,0
5090,122,129,130,128,128,128,127,127,0
5093,120,128,127,128,127,129,127,128,0
5097,130,128,125,126,127,127,129,128,0
5101,128,128,127,127,128,129,127,127,0
5105,130,125,132,128,126,126,129,124,0
5112,128,129,130,128,126,126,126,128,0
5115,129,129,129,128,129,129,127,129,0
5120,130,127,126,128,129,128,127,128,0
5123,130,127,124,127,127,127,128,125,0
5126,126,127,127,128,129,128,129,129,0
5129,129,128,125,126,127,128,128,128,0
5132,130,129,129,130,125,126,128,125,0
5136,124,127,133,129,127,126,126,126,0
5149,126,126,133,129,126,127,128,129,0
5153,128,129,125,127,129,129,129,129,0
5156,131,128,126,127,129,128,129,129,0
5160,129,126,123,128,128,127,127,128,0
5170,128,127,126,128,128,128,126,128,0
5174,125,128,132,126,129,128,127,129,0
5178,126,128,130,128,128,128,128,128,0
5182,124,125,125,127,126,126,128,126,0
5186,122,127,130,129,125,126,127,126,0
5189,124,129,130,127,128,128,128,128,0
5193,129,129,127,128,128,128,126,127,0
5196,131,127,128,128,129,127,129,127,0
5201,126,126,124,128,125,128,127,128,0
5205,128,128,126,127,128,128,126,128,0
5208,128,128,130,128,127,127,128,129,0
5212,124,128,126,126,128,128,128,128,0
5215,129,126,125,126,129,128,128,128,0
5218,127,127,128,128,128,127,126,128,0
5221,130,129,129,129,127,128,127,125,0
5225,126,128,133,128,125,126,129,125,0
5228,127,128,131,129,126,126,129,126,0
5231,123,126,127,128,129,128,127,128,0
5234,129,128,127,128,129,128,126,127,0
5238,132,128,128,128,129,128,127,127,0
5241,128,127,121,127,128,128,128,126,0
5244,132,128,124,128,129,128,128,130,0
5247,126,129,123,127,127,128,128,129,0
5259,131,128,125,128,129,128,127,127,0
5262,127,127,126,128,129,128,128,127,0
5265,127,127,133,129,125,126,127,127,0
5269,128,129,124,127,127,128,129,129,0
5272,128,127,124,127,126,128,129,128,0
5275,123,127,129,128,125,126,128,126,0
5279,125,127,133,129,126,126,127,128,0
5282,132,128,130,126,129,129,127,128,0
5285,130,128,126,125,128,128,127,128,0
5289,130,126,124,127,129,128,129,128,0
5292,129,126,125,127,126,128,129,130,0
5297,126,129,127,127,126,128,126,128,0
5300,129,127,132,129,125,125,127,125,0
5303,124,128,131,128,125,126,128,125,0
5305,123,128,131,128,129,129,127,128,0
5310,130,129,126,127,128,128,128,128,0
5314,131,128,126,126,128,128,126,127,0
5320,131,126,127,128,131,129,127,128,0
5323,128,126,124,128,129,128,130,130,0
5332,126,128,125,126,127,128,128,129,0
5337,127,129,127,127,124,128,127,128,0
5340,130,128,131,127,128,127,128,127,0
5343,125,127,133,127,126,125,127,128,0
5346,131,128,128,128,127,128,125,128,0
5350,131,129,128,127,128,128,127,127,0
5353,125,127,127,128,128,128,128,127,0
5356,128,126,128,128,128,127,126,127,0
5359,128,128,128,127,129,128,128,129,0
5363,132,128,129,126,129,126,128,129,0
5375,123,127,134,128,125,126,127,125,0
5379,124,127,132,129,124,126,125,128,0
5383,128,128,129,128,128,128,126,128,0
5386,128,129,126,127,129,128,128,128,0
5389,127,126,126,128,126,127,126,128,0
5393,129,127,125,126,128,128,128,128,0
5396,133,128,125,128,128,128,128,129,0
5399,131,128,127,128,126,127,126,127,0
5412,128,127,130,129,125,126,127,126,0
5417,120,129,132,129,126,126,128,129,0
5420,128,128,129,128,129,129,126,128,0
5424,129,128,129,128,128,128,127,128,0
5427,130,128,124,127,128,127,127,127,0
5430,127,125,126,127,129,128,129,129,0
5434,129,128,125,126,127,128,129,129,0
5437,125,128,125,127,128,127,127,129,0
5441,121,126,125,129,127,126,128,125,0
5447,123,128,134,126,126,126,127,125,0
5453,122,125,129,128,128,129,127,129,0
5457,134,129,128,126,129,128,127,128,0
5460,131,126,126,127,129,128,128,128,0
5463,130,126,128,129,124,128,128,129,0
5471,131,127,124,125,129,128,128,129,0
5474,129,127,125,126,129,127,129,128,0
5478,122,128,130,129,126,126,126,125,0
5481,125,128,130,127,127,127,127,128,0
5485,126,127,124,127,129,128,130,129,0
5488,130,128,127,128,129,127,127,128,0
5491,128,128,127,128,129,128,130,127,0
5495,128,127,124,128,126,126,127,125,0
5497,123,128,129,127,128,128,128,128,0
5501,131,128,125,127,128,128,128,129,0
5505,132,128,128,127,127,128,127,127,0
5509,132,125,125,127,127,128,127,127,0
5512,128,126,127,127,127,128,126,128,0
5518,130,129,127,127,127,128,127,128,0
5521,129,129,127,128,125,127,127,128,0
5525,126,128,125,127,128,128,128,127,0
5528,129,127,129,128,128,128,127,127,0
5531,125,128,128,128,128,128,128,126,0
5536,130,127,126,128,125,128,127,128,0
5539,121,130,136,128,126,126,128,124,0
5542,126,128,131,129,126,126,129,129,0
5554,130,128,124,127,127,128,128,128,0
5558,131,129,127,127,128,128,127,125,0
5561,128,126,126,128,126,126,129,128,0
5571,132,128,124,127,127,127,128,129,0
5575,127,129,127,128,126,127,127,128,0
5578,126,127,127,127,128,127,127,127,0
5567,132,127,128,127,125,129,128,128,0
5582,135,127,128,128,125,127,127,128,0
5585,129,129,131,128,127,127,127,127,0
5588,135,127,125,127,127,126,129,125,0
5592,121,131,134,128,127,126,128,125,0
5602,126,127,131,129,126,127,126,127,0
5605,129,127,130,126,128,128,126,128,0
5608,129,127,125,127,128,127,127,128,0
5612,131,127,127,128,129,127,127,126,0
5615,120,128,130,129,126,129,130,129,0
5618,128,128,125,125,128,128,127,128,0
5622,134,128,129,128,128,127,126,128,0
5625,126,126,124,127,127,129,127,126,0
5628,122,128,134,129,125,126,125,128,0
5632,129,128,129,127,129,128,128,129,0
5639,132,127,128,127,128,128,127,127,0
5642,131,127,126,123,128,128,127,127,0
5646,128,129,126,128,128,127,126,128,0
5649,129,129,128,127,128,128,126,128,0
5654,126,128,128,128,128,128,127,127,0
5657,126,126,127,129,125,125,127,126,0
5660,123,127,131,129,126,126,127,127,0
5665,127,129,126,127,128,127,127,129,0
5668,125,129,127,127,129,128,129,127,0
5672,131,126,124,126,128,128,130,126,0
5675,124,127,131,129,126,126,127,126,0
5681,124,126,125,127,129,128,129,129,0
5688,131,127,126,128,129,128,127,128,0
5692,131,127,124,125,127,128,126,127,0
5696,127,127,128,129,126,128,130,129,0
5699,126,127,124,128,129,128,128,129,0
5702,127,128,127,126,129,128,129,129,0
5706,129,127,124,128,127,127,129,129,0
5709,121,128,125,127,128,128,128,126,0
5717,129,127,128,128,129,128,128,128,0
5721,132,128,129,129,129,127,127,127,0
5723,124,128,135,128,126,126,129,126,0
5726,124,129,133,129,126,126,128,127,0
5729,123,126,127,125,129,128,127,128,0
5732,132,128,126,127,127,128,127,128,0
5735,133,127,127,123,128,127,127,127,0
5739,126,128,126,128,130,128,127,128,0
5752,124,127,126,128,128,128,127,129,0
5756,129,127,128,128,129,128,127,128,0
5759,128,127,125,127,126,128,128,128,0
5763,125,127,129,129,126,126,128,126,0
5766,122,128,132,128,126,128,126,129,0
5774,129,128,127,127,127,128,127,127,0
5778,128,126,126,127,128,128,127,128,0
5781,126,127,123,127,128,129,127,127,0
5787,128,128,128,128,129,128,129,128,0
5790,130,127,129,128,129,127,127,127,0
5794,127,127,125,128,126,125,127,126,0
5797,124,128,131,129,125,126,127,125,0
5800,125,127,131,128,128,128,126,127,0
5804,133,129,129,127,128,128,128,130,0
5808,125,130,124,127,127,128,128,127,0
5813,129,126,123,125,128,128,128,127,0
5816,127,126,124,127,127,128,127,128,0
5819,129,128,125,127,127,128,125,128,0
5822,128,128,127,128,129,128,129,128,0
5825,121,127,131,129,126,126,127,125,0
5828,123,126,133,128,126,126,126,128,0
5833,130,128,129,127,128,127,128,128,0
5837,133,128,125,126,127,127,127,128,0
5839,131,126,127,128,125,128,127,128,0
5843,125,126,127,127,126,127,129,129,0
5846,131,128,127,126,128,128,125,128,0
5849,131,127,128,128,126,127,126,127,0
5852,133,127,128,128,127,126,127,125,0
5860,123,127,131,128,126,126,126,128,0
5864,125,129,128,128,128,129,127,128,0
5867,135,127,129,128,130,128,128,126,0
5870,138,123,124,127,127,129,127,129,0
5873,110,130,129,128,126,127,126,129,0
5877,127,128,130,126,129,128,127,128,0
5880,131,129,127,128,130,128,128,129,0
5884,126,127,124,128,123,126,128,126,0
5887,124,127,133,129,126,126,127,127,0
5890,128,128,125,127,127,127,126,129,0
5894,131,128,124,127,128,129,126,128,0
5896,128,128,127,128,128,127,126,127,0
5906,126,127,129,128,129,128,129,128,0
5909,127,128,124,127,126,128,128,128,0
5913,129,129,126,128,127,127,128,126,0
5916,127,128,128,128,126,128,127,127,0
5920,130,127,128,128,126,128,126,128,0
5925,127,128,130,128,128,127,127,128,0
5932,130,128,129,126,128,128,127,128,0
5936,124,128,131,129,126,126,128,124,0
5941,129,129,133,128,126,126,128,126,0
5945,127,126,129,128,129,128,126,128,0
5948,133,128,126,127,129,128,130,129,0
5951,129,128,127,126,127,128,127,129,0
5955,122,128,127,128,127,128,127,128,0
5958,129,127,129,127,130,127,127,128,0
5961,129,128,128,128,129,128,129,129,0
5965,124,126,123,124,128,128,126,128,0
5978,129,128,124,128,128,128,128,126,0
5982,124,128,132,129,125,126,125,128,0
5985,130,128,128,128,130,128,128,128,0
5989,131,128,124,129,129,127,127,127,0
5992,129,126,127,128,126,126,127,125,0
5995,123,128,131,128,125,128,127,128,0
5999,132,129,131,128,129,128,126,127,0
6002,132,128,130,128,124,128,128,126,0
6005,123,124,130,129,129,129,127,128,0
6008,118,129,131,128,126,127,128,128,0
6014,133,129,130,128,128,128,128,128,0
6017,129,129,129,128,128,127,126,127,0
6021,128,128,127,128,125,127,128,125,0
6024,123,128,134,129,126,127,126,128,0
6027,132,128,127,127,127,127,127,129,0
6030,134,128,128,128,127,127,127,128,0
6033,131,127,127,127,125,128,130,129,0
6038,127,127,123,128,126,129,127,127,0
6043,125,129,128,128,128,129,127,128,0
6048,126,128,131,128,128,128,128,129,0
6051,123,127,134,128,126,126,128,125,0
6104,127,126,134,130,125,126,125,127,0
6117,131,130,128,123,130,129,129,129,0
6131,131,129,127,127,128,128,127,127,0
6137,126,128,125,127,131,128,129,127,0
6142,127,128,130,128,126,128,128,129,0
6147,130,127,127,128,129,128,129,129,0
6167,129,129,124,127,126,128,128,128,0
6175,123,128,131,128,126,126,128,128,0
6171,127,127,131,128,126,126,127,125,0
6178,130,128,129,128,129,128,128,129,0
6182,131,128,125,127,127,128,127,127,0
6237,126,127,130,128,129,128,129,128,0
6245,125,127,124,127,127,128,128,128,0
6252,128,128,129,128,128,127,126,127,0
6306,130,128,131,127,128,127,127,127,0
6316,130,128,131,128,126,125,129,126,0
6326,122,127,132,129,127,126,129,127,0
6334,130,128,127,127,128,128,128,129,0
6339,132,128,125,127,128,128,127,128,0
6373,126,127,127,127,128,128,128,128,0
6384,124,125,127,128,129,128,128,126,0
6394,128,127,128,127,128,129,126,127,0
6402,133,128,127,127,129,128,127,129,0
6407,126,129,126,126,126,129,127,126,0
6411,125,128,132,129,126,126,128,127,0
6414,123,127,124,129,128,128,128,128,0
6417,133,128,126,126,127,128,127,128,0
6424,131,126,127,128,128,128,126,128,0
6430,124,125,126,128,129,128,129,128,0
6438,128,127,126,126,128,128,129,128,0
6434,129,126,125,128,129,128,129,129,0
6441,130,126,126,127,127,128,128,125,0
6444,129,128,134,128,126,126,127,125,0
6448,123,127,129,129,130,128,129,130,0
6451,126,129,127,127,129,128,129,130,0
6455,130,127,125,127,127,128,127,127,0
6458,127,127,126,127,130,127,127,128,0
6461,130,127,125,127,126,127,127,128,0
6464,130,128,128,127,127,127,127,127,0
6467,130,127,128,128,128,128,128,125,0
6471,124,127,131,130,125,126,127,125,0
6474,126,128,131,128,125,128,129,130,0
6477,127,128,127,128,129,128,128,128,0
6480,131,128,124,127,127,128,128,128,0
6483,129,126,123,126,127,128,127,127,0
6486,127,127,130,128,128,127,127,128,0
6490,130,128,128,129,129,127,127,128,0
6493,127,128,127,128,125,128,129,129,0
6496,126,128,125,128,128,126,129,124,0
6499,130,128,132,129,125,126,128,127,0
6502,133,128,126,126,127,128,128,129,0
6506,127,127,126,127,128,128,126,128,0
6510,126,129,126,127,127,127,127,127,0
6515,121,128,132,128,126,126,127,126,0
6518,129,129,126,127,129,128,128,129,0
6521,131,128,127,127,127,128,127,127,0
6524,125,127,129,129,126,126,127,124,0
6527,121,127,131,128,126,129,127,129,0
6529,130,128,126,127,130,128,126,127,0
6532,131,129,127,127,129,128,127,128,0
6535,124,127,125,128,125,128,129,124,0
6538,129,125,125,127,129,128,129,129,0
6540,128,129,125,127,126,128,126,128,0
6543,132,128,127,128,128,128,128,129,0
6546,128,128,125,126,128,129,128,128,0
6549,126,128,127,126,125,128,128,127,0
6552,126,128,130,128,127,128,126,128,0
6555,130,128,127,127,125,126,128,128,0
6558,120,128,134,129,126,125,128,124,0
6575,128,128,134,128,126,127,127,126,0
6580,126,128,126,127,130,129,128,130,0
6584,129,128,125,126,127,128,129,128,0
6646,127,126,124,125,127,128,128,129,0
6656,129,127,128,129,125,126,127,127,0
6664,128,128,125,126,128,128,128,129,0
6672,130,128,128,128,128,127,128,128,0
6676,128,125,129,128,124,128,128,127,0
6680,125,127,124,127,129,128,127,128,0
6683,127,127,124,127,127,128,128,129,0
6691,122,128,131,129,126,127,127,125,0
6687,129,130,124,127,126,129,129,127,0
6695,124,127,132,129,127,126,127,126,0
6700,132,128,126,126,129,128,127,128,0
6703,132,128,128,128,129,128,127,128,0
6706,132,128,126,128,130,128,128,129,0
6709,128,126,123,129,127,128,127,127,0
6713,127,129,128,127,129,128,126,128,0
6716,132,129,129,128,128,128,128,129,0
6719,123,128,128,128,129,127,128,125,0
6725,123,128,132,125,126,126,127,126,0
6729,121,126,125,127,128,128,128,128,0
6732,132,129,127,127,128,127,128,129,0
6736,132,128,126,128,127,128,129,128,0
6740,127,126,124,126,128,127,127,126,0
6743,131,127,128,127,126,128,126,128,0
6746,130,129,130,127,128,128,126,127,0
6750,129,128,128,128,126,128,126,127,0
6753,131,129,132,128,126,126,127,125,0
6756,123,128,133,129,125,128,127,128,0
6760,129,128,128,127,129,127,127,129,0
6763,129,127,128,128,129,128,129,127,0
6766,123,127,128,126,128,127,126,127,0
6769,122,128,131,129,125,128,128,128,0
6773,133,128,125,128,130,128,129,127,0
6776,125,129,128,128,130,128,129,128,0
6778,123,127,124,127,129,128,128,128,0
6781,124,127,127,128,128,128,129,128,0
6784,132,128,126,127,126,127,127,127,0
6786,130,128,129,127,126,128,127,128,0
6790,119,129,132,128,126,127,129,126,0
6794,123,128,134,127,126,129,128,129,0
6799,130,128,124,126,129,127,128,128,0
6802,130,128,128,128,128,128,126,127,0
6805,132,126,125,127,127,128,127,129,0
6808,120,129,127,128,129,128,126,127,0
6811,128,128,130,127,129,128,126,128,0
6813,128,128,129,128,127,126,127,125,0
6816,125,128,134,129,125,126,127,125,0
6844,123,127,130,129,126,127,127,128,0
6849,130,128,129,128,129,128,128,128,0
6853,131,128,125,127,127,128,127,128,0
6858,129,127,127,126,127,127,126,127,0
6862,126,125,129,126,124,127,128,127,0
6913,131,128,125,128,126,127,128,127,0
6923,135,129,126,126,129,128,128,128,0
6930,124,128,128,128,127,127,130,126,0
6935,125,129,131,129,126,126,127,127,0
6938,122,128,127,127,128,128,126,128,0
6942,129,128,127,129,128,128,125,128,0
6945,128,128,126,127,127,127,126,128,0
6949,126,126,125,125,127,127,125,128,0
6952,128,128,126,127,128,127,128,129,0
6955,128,129,126,128,127,128,126,128,0
6958,125,127,133,129,126,126,127,124,0
6962,130,127,132,128,125,126,127,126,0
6965,134,127,128,127,128,128,127,128,0
6968,133,128,126,128,128,128,126,128,0
6972,121,129,126,127,129,128,129,129,0
6977,127,127,125,127,128,128,127,128,0
6982,130,128,130,128,128,128,127,127,0
6986,127,128,129,128,129,127,126,127,0
6990,127,128,127,128,128,128,129,129,0
6994,118,128,124,128,128,129,129,129,0
6997,128,128,125,128,126,128,127,128,0
7000,132,127,129,128,129,128,128,127,0
7003,129,127,130,128,125,126,129,124,0
7006,129,128,133,130,125,126,128,125,0
7010,122,124,126,128,129,128,127,128,0
7013,128,129,130,128,131,129,129,128,0
7016,129,127,125,128,127,127,126,127,0
7019,126,126,127,126,127,127,126,127,0
7022,128,128,129,128,126,127,126,128,0
7026,128,129,131,128,127,128,126,128,0
7031,126,126,127,128,124,127,127,127,0
7036,127,127,131,129,126,126,129,126,0
7039,121,127,129,127,128,129,130,129,0
7044,130,128,126,127,128,128,127,128,0
7047,131,127,123,128,129,128,127,125,0
7050,123,127,126,128,128,128,126,127,0
7053,129,128,129,126,128,127,127,128,0
7056,132,128,127,129,128,128,127,128,0
7059,127,128,128,130,125,125,127,125,0
7062,121,129,132,128,126,126,128,125,0
7065,124,126,133,128,126,128,130,129,0
7068,131,130,128,127,130,128,128,128,0
7072,128,127,124,125,128,130,131,128,0
7076,124,126,123,127,129,130,126,127,0
7080,128,127,129,128,128,127,127,128,0
7086,128,130,128,128,129,128,126,128,0
7089,126,128,126,128,129,128,127,127,0
7094,128,126,125,126,127,127,127,126,0
7097,122,128,132,128,125,127,127,128,0
7100,130,128,130,129,128,128,128,128,0
7103,129,127,130,127,130,127,127,128,0
7107,127,127,124,128,127,128,128,128,0
7110,130,126,127,129,127,128,126,129,0
7113,129,129,124,127,127,128,127,128,0
7116,128,128,127,128,128,128,128,128,0
7119,129,126,126,127,128,128,128,124,0
7122,128,128,134,129,126,126,128,126,0
7127,125,128,125,127,127,129,127,128,0
7131,131,128,125,127,127,128,127,129,0
7135,124,128,130,126,128,127,129,129,0
7138,125,123,129,128,127,128,126,127,0
7141,126,129,128,126,129,128,128,128,0
7144,127,128,129,129,125,126,128,126,0
7147,124,127,130,128,126,127,128,125,0
7150,125,127,131,128,126,127,130,129,0
7154,129,130,126,125,129,128,127,128,0
7158,132,129,127,125,128,128,128,128,0
7162,130,127,126,128,125,130,130,128,0
7165,127,126,124,128,127,128,127,128,0
7168,129,128,127,127,129,129,127,128,0
7171,130,128,126,128,129,128,129,127,0
7174,130,124,126,128,127,126,127,127,0
7177,122,127,124,129,126,126,127,128,0
7180,120,128,124,126,128,127,129,129,0
7185,129,128,121,126,128,127,130,125,0
7193,123,127,132,128,126,126,127,127,0
7196,122,128,129,127,126,126,126,129,0
7199,130,128,126,127,129,128,128,128,0
7203,129,128,129,126,128,128,126,128,0
7206,128,127,127,128,129,127,127,125,0
7209,133,126,124,127,127,130,127,127,0
7212,128,127,128,126,130,128,128,129,0
7215,131,128,124,126,128,128,129,129,0
7217,127,126,125,127,128,128,129,126,0
7221,122,128,131,129,126,126,127,125,0
7225,122,126,130,128,128,128,127,128,0
7228,132,128,127,128,128,128,128,128,0
7232,126,129,130,128,128,127,127,127,0
7235,130,127,129,128,126,126,127,127,0
7238,123,126,125,127,129,128,129,128,0
7240,132,128,124,127,127,128,128,128,0
7243,131,127,125,127,127,127,126,128,0
7246,127,126,127,128,130,126,128,126,0
7248,122,127,133,128,124,128,128,128,0
7251,133,128,126,126,129,128,126,127,0
7254,128,129,126,127,129,128,128,129,0
7256,123,127,125,126,129,126,127,125,0
7260,128,127,132,128,126,127,128,128,0
7262,128,129,126,128,129,129,129,129,0
7266,130,129,127,129,124,127,127,128,0
7269,133,127,125,126,127,127,128,126,0
7271,125,127,131,128,126,129,127,130,0
7275,130,129,126,126,127,128,127,128,0
7280,131,128,128,126,129,129,128,128,0
7285,125,126,126,128,129,127,128,127,0
7291,125,128,129,126,129,128,128,128,0
7296,130,128,126,127,127,127,129,128,0
7299,128,127,124,127,128,127,129,127,0
7302,128,128,126,128,129,126,129,124,0
7306,129,128,132,129,125,125,127,127,0
7309,129,128,126,128,128,127,127,128,0
7312,130,127,130,129,130,128,128,129,0
7316,126,126,124,125,126,127,127,127,0
7318,127,126,127,128,127,128,127,127,0
7324,128,128,128,127,129,128,128,129,0
7327,127,129,125,127,128,128,128,128,0
7333,124,127,126,127,129,128,129,127,0
7336,127,126,135,128,125,126,128,125,0
7339,125,128,131,129,126,126,127,128,0
7343,127,128,123,127,128,129,129,128,0
7346,134,126,128,128,128,128,127,128,0
7349,127,126,123,126,126,128,129,128,0
7354,127,129,126,126,127,128,128,128,0
7357,127,128,126,129,129,126,127,126,0
7361,126,127,132,127,127,126,127,126,0
7365,120,129,130,127,127,127,129,129,0
7368,131,128,126,125,129,129,128,128,0
7372,131,127,124,125,129,128,128,129,0
7375,125,127,124,125,128,128,129,128,0
7379,127,127,126,125,128,128,130,130,0
7382,127,128,126,127,126,128,127,128,0
7387,130,128,127,128,125,128,126,127,0
7390,127,127,128,130,126,126,127,125,0
7395,126,127,132,128,126,126,127,126,0
7400,124,127,126,128,128,128,128,129,0
7403,125,130,126,127,127,128,126,128,0
7407,128,128,127,128,130,128,128,128,0
7410,122,126,124,128,129,128,128,127,0
7413,129,128,129,127,128,128,126,128,0
7416,127,128,130,127,128,127,126,128,0
7419,125,127,127,126,127,127,127,128,0
7422,130,128,131,128,127,126,127,126,0
7425,123,127,129,128,130,128,126,128,0
7428,133,128,127,126,129,128,129,128,0
7431,128,127,125,128,128,128,127,126,0
7433,128,127,128,126,128,129,126,127,0
7436,127,128,128,129,129,128,129,129,0
7440,127,128,124,127,126,127,127,128,0
7443,129,127,126,128,125,129,127,127,0
7446,130,126,124,129,126,126,128,124,0
7448,127,128,131,129,125,127,129,129,0
7451,126,130,126,124,130,129,129,128,0
7454,127,127,127,128,129,127,127,127,0
7457,127,128,126,127,129,128,127,128,0
7460,125,127,128,126,129,127,128,128,0
7463,130,128,127,128,128,128,129,129,0
7467,124,128,125,128,127,128,128,128,0
7470,121,124,134,128,126,126,128,124,0
7472,127,127,129,129,126,127,126,128,0
7476,132,129,127,128,132,127,128,128,0
7478,129,128,130,128,128,127,128,125,0
7481,123,126,127,128,129,126,128,126,0
7485,124,128,131,129,126,128,128,129,0
7491,131,128,124,127,128,128,126,128,0
7496,132,128,129,128,129,127,129,128,0
7499,128,126,125,128,127,128,126,127,0
7502,124,127,127,128,129,128,127,128,0
7505,129,128,125,127,126,128,128,128,0
7508,131,128,127,127,128,128,126,127,0
7510,128,127,131,129,126,125,128,125,0
7514,124,127,133,129,125,127,126,128,0
7517,129,128,129,127,129,128,126,127,0
7520,132,128,128,127,130,127,127,128,0
7524,120,128,123,127,129,129,130,129,0
7528,126,127,125,128,130,128,128,129,0
7531,129,129,126,127,127,127,127,128,0
7534,124,126,127,128,129,127,128,127,0
7536,130,126,125,128,126,126,130,125,0
7539,128,129,135,128,125,126,126,127,0
7542,127,128,124,125,127,127,129,129,0
7545,129,127,124,127,128,128,129,125,0
7548,128,125,128,129,126,126,128,124,0
7552,125,125,134,127,126,126,127,127,0
7556,134,128,129,123,129,129,128,130,0
7558,124,131,128,128,128,127,127,127,0
7562,126,128,126,127,129,128,126,127,0
7565,126,128,129,128,127,127,126,128,0
7568,127,129,128,128,129,128,128,129,0
7570,130,128,125,128,127,127,127,127,0
7573,133,126,128,129,123,128,129,127,0
7576,128,128,127,127,129,128,128,128,0
7579,128,128,124,127,126,128,126,128,0
7583,126,130,129,127,128,128,126,128,0
7589,128,128,128,129,125,126,127,125,0
7594,127,129,134,128,126,126,127,126,0
7598,124,127,127,127,127,128,127,128,0
7601,135,128,126,125,129,129,128,128,0
7603,130,127,124,125,128,127,126,127,0
7607,127,125,128,127,129,127,128,127,0
7610,127,127,127,128,127,127,126,128,0
7613,131,129,130,129,129,128,126,127,0
7616,131,128,128,126,126,126,127,126,0
7619,126,128,131,128,126,126,128,127,0
7622,121,124,127,128,129,128,127,128,0
7627,131,128,127,127,127,127,127,127,0
7630,128,128,127,128,127,128,126,127,0
7633,127,126,129,129,124,126,128,125,0
7643,124,127,127,128,129,128,127,128,0
7647,132,128,126,128,130,128,129,128,0
7652,132,127,123,128,126,128,127,128,0
7655,129,128,125,127,126,127,126,128,0
7660,125,128,127,127,129,128,127,128,0
7664,129,128,127,129,127,127,129,129,0
7667,129,128,129,126,127,128,127,128,0
7670,129,126,127,126,129,128,128,128,0
7674,121,128,128,129,129,128,126,128,0
7677,129,128,130,127,128,128,129,128,0
7680,131,128,129,128,127,128,129,128,0
7683,123,128,134,129,126,125,129,124,0
7687,129,128,134,128,126,126,128,128,0
7690,130,129,127,127,129,129,127,128,0
7694,129,129,131,128,129,127,128,128,0
7698,127,128,130,130,126,127,128,126,0
7703,125,127,121,124,127,129,128,128,0
7708,129,128,123,128,130,128,129,129,0
7711,128,127,123,127,124,128,128,128,0
7714,133,126,124,128,128,128,128,127,0
7718,125,126,125,128,125,128,128,129,0
7721,129,128,124,128,127,127,125,127,0
7724,130,126,132,130,125,126,126,126,0
7728,125,128,131,127,127,126,127,126,0
7731,123,128,129,128,125,130,130,129,0
7734,130,129,125,126,128,128,130,129,0
7737,132,128,125,127,126,128,127,128,0
7740,129,125,129,129,126,127,127,126,0
7744,122,126,129,129,128,128,127,129,0
7749,130,129,129,128,132,128,127,129,0
7751,129,128,124,126,128,128,127,128,0
7754,129,127,126,128,129,128,129,126,0
7757,127,124,130,126,129,127,130,128,0
7761,130,128,128,128,128,128,126,128,0
7765,129,127,131,127,129,128,127,126,0
7768,133,126,128,127,129,127,127,124,0
7772,118,129,130,128,126,127,128,127,0
7777,118,128,125,128,128,128,128,129,0
7780,132,129,125,127,128,128,129,129,0
7784,128,128,126,129,127,128,127,128,0
7788,128,126,126,128,124,128,129,129,0
7793,126,128,124,126,127,128,128,129,0
7796,130,129,124,128,127,128,129,128,0
7799,128,126,125,127,127,128,128,126,0
7803,128,128,136,129,126,126,129,126,0
7808,124,127,122,127,128,128,127,129,0
7811,132,128,130,127,129,128,126,128,0
7816,128,128,131,129,127,129,126,127,0
7819,122,127,123,128,130,128,129,128,0
7822,128,128,125,127,127,128,129,128,0
7826,131,128,127,128,127,128,127,128,0
7829,130,128,126,128,127,128,129,126,0
7832,123,128,132,127,127,126,127,125,0
7836,124,127,132,128,124,128,130,128,0
7839,133,128,127,127,128,129,126,128,0
7842,126,128,127,126,129,128,126,128,0
7845,130,128,127,126,128,127,128,128,0
7849,128,128,126,127,128,129,127,128,0
7852,128,129,129,128,129,127,126,126,0
7858,127,128,125,128,125,128,130,126,0
7862,130,127,134,128,126,126,127,125,0
7865,126,127,132,128,125,128,127,128,0
7868,132,129,128,129,128,128,127,129,0
7870,119,131,127,127,129,128,128,127,0
7875,125,127,133,128,126,126,127,126,0
7878,123,127,124,125,129,128,129,129,0
7880,132,128,126,128,128,129,126,127,0
7885,130,127,127,128,131,128,128,128,0
7888,126,125,127,129,130,128,128,128,0
7891,122,126,128,126,129,128,127,128,0
7894,131,129,127,125,128,128,129,129,0
7897,128,127,125,128,127,126,129,127,0
7900,122,127,127,128,127,127,127,125,0
7903,123,128,133,129,126,126,126,127,0
7907,132,128,129,128,128,128,127,127,0
7913,132,127,126,127,129,128,129,129,0
7917,124,128,125,127,126,128,127,128,0
7920,127,127,125,127,129,127,129,128,0
7923,130,129,132,127,129,128,126,128,0
7926,127,128,127,128,129,126,127,127,0
7929,123,129,134,127,126,126,128,126,0
7932,124,127,132,127,126,126,131,128,0
7936,133,129,125,127,129,128,129,128,0
7940,131,127,125,128,127,127,127,128,0
7943,121,127,129,129,126,127,127,127,0
7946,122,128,123,125,129,128,129,129,0
7950,127,129,125,127,129,128,128,128,0
7954,131,128,125,127,127,128,127,129,0
7959,131,129,126,126,127,127,127,127,0
7964,127,126,129,129,128,128,125,127,0
7967,129,129,131,126,128,128,128,128,0
7970,128,127,124,127,127,127,129,128,0
7973,128,127,126,128,125,128,128,126,0
7976,134,125,126,128,128,127,127,127,0
7980,128,128,127,128,127,129,127,130,0
7984,124,130,126,127,127,129,127,125,0
7987,125,128,135,129,126,125,128,126,0
7989,124,127,132,130,126,126,127,125,0
7993,131,128,129,128,129,127,126,128,0
7995,130,128,126,127,130,130,129,128,0
7999,128,127,124,128,126,128,130,126,0
8002,120,125,128,128,126,127,127,126,0
8006,129,129,128,127,128,127,126,128,0
8009,132,128,128,127,126,127,125,128,0
8013,133,126,128,126,127,126,126,125,0
8018,125,129,129,125,126,126,127,127,0
8023,120,127,125,127,128,128,129,129,0
8026,130,128,125,128,129,128,128,129,0
8029,129,127,124,126,128,128,127,127,0
8031,128,125,128,129,126,128,128,128,0
8035,129,128,126,128,130,128,127,128,0
8038,127,130,127,126,130,128,127,128,0
8041,129,126,127,126,128,128,126,128,0
8045,129,125,125,128,127,126,127,125,0
8048,126,127,132,127,124,128,129,128,0
8050,133,128,125,127,129,128,129,130,0
8053,126,128,124,128,129,128,129,128,0
8057,126,127,127,128,129,128,128,127,0
8060,129,128,127,125,129,128,128,128,0
8063,128,128,126,127,128,128,128,129,0
8066,124,128,127,128,125,126,128,124,0
8069,131,128,133,129,125,125,128,125,0
8072,125,127,133,128,126,128,128,129,0
8075,132,128,126,127,127,128,127,129,0
8079,125,129,127,125,130,128,127,128,0
8083,127,126,126,128,131,128,128,128,0
8086,127,126,125,127,126,127,128,128,0
8089,132,128,124,127,128,128,129,130,0
8093,123,128,124,128,128,129,126,126,0
8098,121,128,131,129,126,126,127,125,0
8101,123,127,131,128,124,128,128,128,0
8105,131,129,129,127,129,128,127,128,0
8109,129,128,123,128,128,130,128,127,0
8113,129,127,127,129,126,128,127,126,0
8118,123,125,128,128,128,128,127,127,0
8122,135,128,128,127,128,128,127,128,0
8125,126,129,126,128,129,128,129,129,0
8128,127,128,128,129,126,126,127,126,0
8131,122,128,133,130,125,128,130,129,0
8133,130,129,128,125,128,128,128,128,0
8137,132,128,124,128,129,128,129,129,0
8139,121,124,130,129,127,128,127,127,0
8142,126,128,129,128,127,127,126,127,0
8146,129,128,127,127,127,127,126,127,0
8148,129,127,124,128,128,128,129,129,0
8151,127,126,125,127,128,128,128,128,0
8154,128,126,135,129,126,126,129,125,0
8157,124,127,126,126,127,128,128,129,0
8161,128,129,128,128,127,128,127,126,0
8165,132,126,126,126,127,128,127,127,0
8168,125,128,131,129,126,126,126,125,0
8173,127,129,126,128,128,128,127,128,0
8176,131,129,128,127,129,129,126,127,0
8179,124,125,128,129,129,127,127,127,0
8181,131,127,127,128,129,127,127,127,0
8184,131,127,125,127,127,128,128,128,0
8187,134,128,129,128,129,127,128,129,0
8190,127,128,133,128,127,127,128,126,0
8194,121,128,132,129,127,126,128,127,0
8197,128,128,125,128,128,128,127,128,0
8200,132,129,128,127,128,128,126,127,0
8205,128,127,129,128,129,128,127,128,0
8211,125,127,126,128,128,128,127,128,0
8216,129,129,129,128,128,127,127,128,0
8220,129,128,130,127,126,127,128,128,0
8222,129,128,124,128,125,126,128,125,0
8225,129,127,130,130,127,126,127,127,0
8228,122,127,125,126,129,128,128,128,0
8232,131,128,127,127,128,128,126,128,0
8236,130,127,126,127,129,128,129,128,0
8245,125,127,123,128,123,128,127,129,0
8250,127,126,123,127,127,128,128,128,0
8255,129,128,125,127,127,127,128,129,0
8258,120,129,128,129,126,126,128,125,0
8261,124,127,132,128,126,126,129,125,0
8265,124,126,125,127,129,128,128,129,0
8268,127,129,129,127,130,128,129,129,0
8271,128,128,126,127,128,127,126,127,0
8275,126,128,128,128,127,128,126,127,0
8279,127,127,123,127,128,128,129,129,0
8281,130,129,125,127,127,128,127,128,0
8285,128,128,131,127,129,126,127,127,0
8289,129,127,126,128,128,126,129,124,0
8291,130,127,133,127,126,126,126,128,0
8295,132,127,125,128,128,128,128,129,0
8299,124,130,124,127,126,128,128,128,0
8301,128,127,125,127,128,126,128,125,0
8306,121,127,132,129,125,127,127,128,0
8310,128,129,127,127,128,128,128,128,0
8314,131,129,126,128,128,128,127,127,0
8319,126,127,126,127,127,128,126,127,0
8324,126,126,129,126,127,128,127,126,0
8328,131,128,126,127,128,129,128,129,0
8331,127,128,125,128,127,127,127,128,0
8336,124,128,128,129,126,126,128,125,0
8339,125,127,134,128,125,126,125,127,0
8342,131,129,126,127,129,129,127,129,0
8345,127,128,129,128,129,128,128,129,0
8349,122,126,131,128,127,126,127,125,0
8352,124,127,132,129,126,128,127,128,0
8355,132,128,126,128,129,128,128,128,0
8358,131,128,124,126,128,128,130,128,0
8362,127,127,126,129,126,126,129,128,0
8365,122,126,132,125,129,127,128,128,0
8368,130,127,127,128,129,128,128,128,0
8372,131,127,129,128,128,129,129,129,0
8375,125,129,124,127,129,128,128,127,0
8378,126,128,124,127,126,127,128,128,0
8381,127,128,127,127,125,127,128,129,0
8385,129,128,124,127,128,127,126,127,0
8388,129,127,133,128,126,126,127,126,0
8392,122,127,133,129,126,126,128,126,0
8395,122,129,127,127,128,128,129,129,0
8398,130,128,125,127,129,128,129,128,0
8402,128,126,123,128,129,129,126,127,0
8405,128,127,128,129,129,128,127,129,0
8408,124,129,125,126,129,128,129,129,0
8411,127,128,124,128,126,127,128,128,0
8415,131,126,133,128,125,126,127,125,0
8419,125,127,130,129,126,127,127,127,0
8427,124,128,127,127,128,129,127,129,0
8431,131,128,127,127,128,128,126,128,0
8434,131,127,129,128,129,128,129,128,0
8438,127,126,123,127,131,128,128,128,0
8441,126,126,126,126,129,128,128,129,0
8444,130,128,125,127,126,127,128,128,0
8447,129,126,129,129,127,127,126,127,0
8450,128,126,128,128,129,128,128,127,0
8454,130,128,125,129,128,128,127,127,0
8457,131,128,128,128,129,128,127,128,0
8460,131,128,131,127,125,126,127,125,0
8463,123,129,129,127,127,127,127,126,0
8467,120,127,128,128,129,128,129,128,0
8470,130,128,126,125,129,129,128,128,0
8473,130,127,124,127,128,128,126,128,0
8476,128,124,128,128,128,127,126,127,0
8480,129,127,124,128,129,127,128,129,0
8483,127,129,128,126,129,128,127,129,0
8487,130,128,125,128,126,127,128,127,0
8489,127,126,128,130,125,126,128,125,0
8492,123,127,134,129,126,127,127,128,0
8496,133,128,131,128,128,128,127,128,0
8499,130,126,124,127,126,128,129,127,0
8502,126,126,128,128,130,129,127,128,0
8506,124,128,129,128,129,128,127,128,0
8509,127,128,129,127,129,128,129,128,0
8512,131,127,125,128,126,127,127,127,0
8515,129,127,131,127,126,126,128,124,0
8519,126,128,133,129,126,127,129,129,0
8521,129,129,126,127,128,128,126,128,0
8526,129,127,128,128,129,128,129,125,0
8534,128,127,126,128,129,127,126,125,0
8537,125,127,131,128,126,128,126,128,0
8540,131,129,130,128,129,128,126,128,0
8546,132,128,129,128,129,128,127,128,0
8549,130,127,123,127,127,128,129,128,0
8552,127,126,125,127,128,128,126,128,0
8555,129,128,134,129,128,128,128,128,0
8558,129,127,121,124,129,128,126,127,0
8561,127,128,127,128,127,126,128,126,0
8564,121,129,133,129,126,126,126,127,0
8568,129,129,129,127,129,127,127,128,0
8571,130,128,129,128,129,128,126,127,0
8574,127,127,127,128,127,128,129,126,0
8577,122,127,131,128,126,126,127,127,0
8581,131,129,130,127,129,128,127,128,0
8583,131,128,125,123,128,128,131,129,0
8586,125,127,122,128,128,128,126,128,0
8589,134,127,124,127,127,128,126,128,0
8592,126,130,130,129,129,128,127,127,0
8597,130,129,131,129,128,128,127,127,0
8599,127,127,126,128,126,128,127,127,0
8604,128,127,127,128,126,127,128,127,0
8607,130,128,127,128,127,128,127,127,0
8610,131,127,124,128,128,125,127,125,0
8613,125,128,131,128,125,127,127,126,0
8616,124,129,130,127,126,127,127,126,0
8619,131,128,126,127,127,128,127,129,0
8622,130,129,127,128,129,128,129,128,0
8625,131,127,124,127,126,127,128,127,0
8629,129,125,125,125,127,128,129,129,0
8635,128,128,127,127,127,128,126,128,0
8638,130,128,128,128,128,127,127,128,0
8641,125,126,131,129,125,126,127,126,0
8648,125,127,132,129,127,126,127,125,0
8651,123,129,126,128,129,129,128,129,0
8656,131,128,125,127,132,127,128,127,0
8659,131,126,131,130,125,127,130,127,0
8662,128,127,119,126,126,128,127,128,0
8665,121,130,130,127,130,128,128,128,0
8668,130,128,132,127,128,128,127,129,0
8671,122,128,127,126,129,126,126,127,0
8678,129,127,126,128,124,128,129,128,0
8675,126,126,124,128,128,128,128,128,0
8681,131,128,126,127,126,127,126,128,0
8684,130,127,127,127,126,126,128,124,0
8688,129,128,134,128,127,127,128,126,0
8691,123,128,131,129,125,129,128,128,0
8696,130,129,124,128,128,128,127,128,0
8699,130,127,128,128,125,128,129,128,0
8702,124,127,124,128,127,128,127,127,0
8705,129,128,130,128,128,128,125,127,0
8718,132,129,129,129,128,127,127,129,0
8722,123,127,131,128,129,128,126,127,0
8725,123,128,133,127,126,126,129,126,0
8729,121,128,128,129,129,128,126,128,0
8733,130,128,126,129,128,128,127,128,0
8736,133,128,125,125,129,128,128,127,0
8740,131,126,124,128,128,128,128,126,0
8746,131,125,128,127,128,127,126,127,0
8751,126,129,130,128,128,127,129,129,0
8755,127,127,127,128,128,128,127,127,0
8758,126,126,127,129,126,126,129,125,0
8762,127,128,131,128,125,126,126,128,0
8765,129,127,128,127,129,128,126,128,0
8768,129,128,131,129,129,128,128,128,0
8771,127,125,130,128,129,128,126,128,0
8775,124,127,124,127,127,128,130,128,0
8777,130,127,126,127,128,128,128,128,0
8780,131,127,131,129,126,126,127,125,0
8783,129,127,132,128,126,126,127,125,0
8787,122,128,132,130,126,128,127,128,0
8790,129,128,132,127,129,129,127,129,0
8795,124,129,124,128,131,128,130,128,0
8798,130,126,123,125,127,128,129,128,0
8801,129,127,125,126,128,128,127,129,0
8804,127,128,128,127,129,127,127,127,0
8807,130,127,128,129,128,127,126,127,0
8810,127,126,126,128,128,128,126,127,0
8813,122,126,132,130,125,126,127,126,0
8816,126,128,128,126,128,128,128,129,0
8818,128,130,125,127,128,128,128,128,0
8823,129,126,130,129,128,128,127,128,0
8826,120,126,126,127,130,128,127,129,0
8828,130,128,125,128,129,127,128,128,0
8832,130,128,125,128,128,127,126,128,0
8835,128,127,127,126,130,127,128,126,0
8838,129,128,134,128,126,126,127,125,0
8842,126,127,125,128,129,128,128,129,0
8852,127,130,130,127,129,128,129,129,0
8856,129,127,124,128,128,127,127,129,0
8859,126,127,124,127,127,128,127,127,0
8862,128,128,132,128,129,129,128,128,0
8865,129,129,125,128,128,127,128,127,0
8868,129,127,130,129,126,125,127,125,0
8871,126,127,131,128,126,126,128,126,0
8874,122,127,125,128,130,127,126,128,0
8878,128,129,130,126,129,128,126,127,0
8881,133,128,128,128,128,128,128,127,0
8884,128,128,128,128,128,127,129,127,0
8887,128,127,126,128,128,128,126,128,0
8890,132,128,130,128,125,127,127,128,0
8893,126,128,128,129,128,127,125,127,0
8896,127,127,119,126,128,128,127,128,0
8898,130,128,127,128,128,128,127,128,0
8902,129,129,129,129,127,128,126,127,0
8906,131,127,133,129,126,125,129,124,0
8908,129,127,131,129,126,126,127,126,0
8913,122,128,130,128,130,128,128,129,0
8915,130,128,126,127,128,128,127,127,0
8918,135,127,126,127,127,128,126,125,0
8922,130,125,125,128,127,128,131,125,0
8925,128,128,123,126,128,129,128,128,0
8928,130,128,125,126,129,128,128,128,0
8931,126,129,125,128,128,128,127,128,0
8936,121,128,127,129,126,126,128,127,0
8940,123,128,132,128,126,126,128,129,0
8943,131,128,125,127,128,128,126,128,0
8947,130,127,126,128,128,128,127,127,0
8951,125,128,129,129,125,128,129,127,0
8957,128,125,124,128,130,128,129,129,0
8963,133,127,125,127,126,129,126,127,0
8967,131,128,128,126,129,128,126,127,0
8970,131,127,128,128,129,127,128,128,0
8974,121,128,135,129,125,125,128,127,0
8977,122,127,131,127,128,128,126,128,0
8980,131,128,128,128,126,128,128,128,0
8985,131,126,126,128,126,126,126,126,0
8988,124,127,132,129,126,126,127,128,0
8992,127,129,130,127,129,128,127,129,0
8996,129,129,130,129,130,128,127,129,0
8999,128,126,127,124,128,127,129,128,0
9002,127,128,124,126,127,128,126,128,0
9007,130,129,128,128,128,128,128,128,0
9010,127,127,127,128,129,128,129,128,0
9013,125,127,126,129,125,126,127,126,0
9016,122,126,132,129,126,126,127,126,0
9020,128,128,126,126,128,128,128,129,0
9023,130,129,123,128,127,128,130,129,0
9027,128,127,123,127,126,127,127,127,0
9030,127,126,127,129,128,127,127,128,0
9033,128,128,129,127,127,129,126,128,0
9037,130,129,128,126,129,128,127,128,0
9039,128,126,127,126,129,128,127,127,0
9042,130,126,128,130,126,126,128,125,0
9046,123,129,127,127,128,128,126,129,0
9050,126,130,129,127,129,127,127,127,0
9055,125,126,128,129,125,127,129,128,0
9060,131,126,126,128,127,127,129,127,0
9065,124,127,127,126,129,128,128,128,0
9069,127,128,123,126,126,128,127,128,0
9072,123,129,132,129,125,126,127,126,0
9075,126,127,131,130,126,126,127,126,0
9078,123,124,128,125,129,129,128,129,0
9081,130,128,125,128,131,129,129,129,0
9085,131,128,122,127,128,128,128,128,0
9088,131,126,123,127,128,128,128,129,0
9091,124,127,124,127,128,128,128,129,0
9095,127,128,125,128,128,127,128,128,0
9098,128,126,128,129,129,128,128,126,0
9101,123,129,130,128,126,126,129,127,0
9104,123,127,130,125,128,129,128,128,0
9108,131,128,126,128,129,129,127,128,0
9111,129,128,123,128,128,127,128,126,0
9114,132,126,127,128,125,127,128,127,0
9118,127,126,125,127,128,128,127,129,0
9121,128,129,128,127,129,128,129,128,0
9124,127,128,128,126,128,127,126,127,0
9129,122,127,134,129,126,126,129,127,0
9133,119,127,123,126,131,129,130,130,0
9136,130,128,125,126,129,128,129,128,0
9140,133,128,129,128,127,128,127,127,0
9143,128,127,131,128,126,126,128,127,0
9150,118,129,127,128,131,129,128,128,0
9155,128,129,126,126,129,128,126,128,0
9159,135,129,126,126,128,128,127,127,0
9163,131,125,130,128,129,127,127,128,0
9169,122,126,125,128,128,128,126,127,0
9173,127,129,129,126,129,128,128,129,0
9179,130,127,123,127,127,127,127,126,0
9182,124,128,130,129,126,126,127,125,0
9185,123,128,130,129,127,128,126,127,0
9189,132,128,132,128,128,128,126,128,0
9192,130,127,126,127,127,128,126,127,0
9195,127,127,127,126,127,127,126,124,0
9198,125,127,125,128,127,128,128,128,0
9201,129,129,129,129,128,128,126,127,0
9204,130,128,129,128,129,128,126,128,0
9212,134,127,126,126,129,128,128,127,0
9216,124,127,127,128,127,127,128,128,0
9219,124,128,127,126,128,127,129,127,0
9221,127,128,130,127,127,127,127,125,0
9225,130,128,133,129,127,126,127,126,0
9228,122,127,134,128,126,127,129,129,0
9232,130,128,125,128,130,129,127,129,0
9235,129,129,126,126,129,127,126,128,0
9239,122,127,124,127,126,128,127,127,0
9242,125,126,124,127,126,128,128,128,0
9245,131,129,127,127,127,127,127,128,0
9248,130,128,129,128,128,127,127,127,0
9252,131,128,127,128,129,128,126,127,0
9255,128,127,127,128,128,128,126,128,0
9264,129,128,129,127,128,127,126,128,0
9267,129,128,130,128,127,128,126,128,0
9270,126,127,128,128,129,127,129,124,0
9274,127,129,135,129,126,126,128,126,0
9277,123,128,125,127,128,128,126,128,0
9282,132,128,127,128,127,127,125,127,0
9286,132,126,129,126,129,128,127,128,0
9289,124,126,131,129,124,126,127,125,0
9299,124,127,126,127,128,128,127,129,0
9302,131,128,127,126,129,127,124,127,0
9305,131,126,128,127,127,127,127,127,0
9308,132,125,126,129,126,126,128,126,0
9310,120,129,126,127,128,128,127,130,0
9314,126,129,127,127,128,127,126,128,0
9317,131,128,127,126,129,128,126,127,0
9321,129,125,132,130,129,126,126,127,0
9324,126,129,122,124,129,128,128,129,0
9327,127,127,126,129,126,127,129,128,0
9337,123,128,126,124,129,127,126,125,0
9341,127,127,134,128,126,126,127,127,0
9344,116,128,124,125,128,129,129,129,0
9348,129,129,125,127,127,128,130,128,0
9351,133,128,126,128,126,127,127,127,0
9354,131,126,128,126,129,127,126,127,0
9358,125,128,129,128,126,128,125,128,0
9361,126,128,130,129,127,127,128,128,0
9374,126,126,128,127,125,128,129,127,0
9379,125,128,133,129,126,126,129,126,0
9382,124,127,132,129,129,128,127,127,0
9386,131,129,126,128,131,128,129,129,0
9389,128,129,126,125,128,128,125,128,0
9393,124,127,128,130,126,128,126,129,0
9409,125,127,124,126,129,128,128,129,0
9413,130,129,125,127,128,127,127,128,0
9417,128,128,129,127,128,128,127,129,0
9421,125,129,126,127,126,126,128,124,0
9427,128,128,132,129,126,126,127,128,0
9432,134,129,128,127,129,128,127,129,0
9435,129,129,124,127,128,128,126,127,0
9438,126,128,127,128,129,128,129,128,0
9441,128,125,130,127,128,127,127,128,0
9445,128,127,128,127,129,127,128,128,0
9451,128,127,123,128,127,128,128,129,0
9455,123,126,125,127,128,127,127,126,0
9459,123,126,132,128,125,126,127,126,0
9463,127,127,131,129,131,128,128,128,0
9467,128,129,125,126,128,128,126,127,0
9470,124,126,123,127,127,127,128,126,0
9473,128,126,127,127,128,128,128,128,0
9476,128,128,124,127,129,128,127,128,0
9480,134,128,124,128,129,128,127,127,0
9483,129,127,127,128,129,127,128,127,0
9486,126,127,134,128,126,126,128,126,0
9489,124,126,130,127,129,129,127,129,0
9493,128,131,127,126,130,128,128,127,0
9496,123,127,126,128,131,128,127,125,0
9500,125,128,133,128,126,126,127,127,0
9503,130,128,129,128,131,128,127,128,0
9506,131,127,124,127,128,128,130,128,0
9508,131,127,125,128,127,128,127,127,0
9512,122,126,127,128,127,127,126,128,0
9515,128,127,127,126,129,128,129,129,0
9518,130,129,124,127,125,127,128,129,0
9521,127,125,132,129,126,126,127,125,0
9523,125,128,132,129,126,126,127,126,0
9526,126,128,125,125,129,128,126,127,0
9530,131,128,127,127,129,128,128,130,0
9535,131,127,126,126,128,127,128,128,0
9540,126,127,123,127,128,128,127,126,0
9548,130,127,130,130,129,128,127,127,0
9552,133,127,129,126,129,128,128,129,0
9556,123,129,129,128,126,129,127,125,0
9559,123,128,133,128,125,126,128,127,0
9562,121,126,124,126,131,128,128,130,0
9566,129,129,125,128,128,127,130,129,0
9569,126,126,127,126,129,128,128,127,0
9574,129,125,130,127,128,128,126,125,0
9584,123,128,134,129,126,127,128,129,0
9588,129,129,124,125,128,128,128,127,0
9591,131,128,128,127,129,127,127,127,0
9596,132,127,127,128,129,128,126,127,0
9600,127,127,128,127,129,128,128,129,0
9604,126,129,126,126,129,128,128,128,0
9607,127,127,127,129,128,128,128,128,0
9610,122,126,128,128,126,126,128,125,0
9614,128,129,130,130,126,126,127,129,0
9617,132,128,127,128,129,128,130,128,0
9620,131,127,124,127,127,127,128,128,0
9623,126,126,123,127,127,127,128,128,0
9627,125,127,125,129,129,128,128,128,0
9633,126,129,127,128,129,128,129,130,0
9637,126,127,124,129,129,128,128,128,0
9640,121,128,128,127,129,127,128,124,0
9643,126,128,136,130,124,126,128,126,0
9646,127,126,123,125,128,129,129,129,0
9649,129,128,124,125,129,127,127,129,0
9655,121,126,130,128,127,127,128,127,0
9662,126,128,133,129,125,126,130,129,0
9667,131,128,124,127,129,128,127,128,0
9670,132,128,128,128,130,128,126,127,0
9673,128,126,124,128,127,128,128,126,0
9677,135,127,125,127,125,128,126,128,0
9680,123,130,128,128,127,128,126,128,0
9683,123,129,129,128,128,127,128,128,0
9686,130,127,126,126,129,128,129,127,0
9689,128,128,127,129,129,128,126,128,0
9704,128,128,127,128,126,128,128,128,0
9709,126,127,125,128,127,127,128,128,0
9712,131,126,133,131,125,127,128,125,0
9716,123,129,133,127,127,126,127,127,0
9719,129,128,129,127,129,128,128,128,0
9722,131,128,124,125,127,128,128,128,0
9725,127,127,125,128,128,129,129,128,0
9729,123,127,128,128,130,128,129,128,0
9732,128,127,124,127,130,128,129,128,0
9735,126,127,124,128,129,128,128,127,0
9739,129,128,127,128,127,127,127,127,0
9742,120,128,135,129,126,126,127,126,0
9746,123,127,127,129,129,128,126,128,0
9749,129,128,130,127,128,128,127,127,0
9754,126,125,125,128,131,128,127,128,0
9760,127,125,126,128,129,128,128,128,0
9762,132,126,125,127,127,128,128,128,0
9766,131,128,127,128,127,128,128,129,0
9768,126,128,126,128,127,127,127,127,0
9776,126,127,134,128,126,125,128,125,0
9779,126,129,131,129,128,128,127,129,0
9784,130,127,123,128,129,130,130,128,0
9790,130,125,124,128,129,127,126,125,0
9794,129,126,134,129,124,126,127,126,0
9797,120,127,125,127,132,128,127,129,0
9800,127,129,128,128,129,128,129,130,0
9804,128,126,129,129,129,128,127,128,0
9814,127,127,116,123,128,128,126,127,0
9818,127,128,129,128,129,128,128,129,0
9821,131,127,126,126,128,127,128,128,0
9825,128,127,125,128,126,128,128,127,0
9828,130,127,125,130,125,126,127,126,0
9831,124,127,130,129,124,128,128,129,0
9835,131,128,124,127,127,128,129,129,0
9838,128,127,124,128,129,128,128,127,0
9841,129,127,127,129,126,127,126,127,0
9845,126,127,128,129,128,128,129,129,0
9848,131,128,129,129,129,127,128,128,0
9857,128,126,128,128,129,127,126,127,0
9860,131,127,136,128,125,125,127,124,0
9863,127,129,130,129,126,127,127,128,0
9867,132,129,129,127,129,128,128,129,0
9869,127,127,127,127,128,127,126,127,0
9872,122,129,125,127,131,128,128,127,0
9876,129,126,129,128,129,127,127,129,0
9879,130,128,127,127,129,128,127,129,0
9882,124,127,126,128,129,127,126,126,0
9885,125,127,130,128,125,126,128,124,0
9894,126,127,133,129,126,126,129,130,0
9898,132,128,130,128,130,128,128,129,0
9902,127,129,125,127,129,128,128,128,0
9909,129,127,127,127,129,129,127,128,0
9913,125,128,125,127,127,129,127,128,0
9917,127,128,128,127,126,127,126,127,0
9920,128,128,127,128,128,127,128,126,0
9923,122,127,133,129,126,126,127,126,0
9931,122,128,133,127,125,129,128,128,0
9935,132,128,125,127,127,128,127,129,0
9939,132,128,126,127,126,127,126,127,0
9942,132,126,127,126,127,127,127,124,0
9945,122,127,128,129,125,127,128,128,0
9949,134,129,127,127,128,128,126,129,0
9967,126,129,131,126,129,128,127,128,0
9971,125,128,128,129,127,126,127,125,0
9975,123,127,131,129,126,126,127,127,0
9978,132,129,127,128,131,129,129,128,0
9981,132,128,127,127,128,129,128,128,0
9985,124,129,124,127,128,129,127,127,0
9988,127,125,123,127,128,128,129,128,0
9991,129,128,129,129,128,128,127,129,0
9995,128,129,130,128,128,128,126,128,0
9998,127,127,126,128,126,128,126,127,0
10001,126,127,126,129,125,126,128,126,0
10005,124,128,130,128,129,129,126,128,0
10008,129,128,128,128,129,128,129,126,0
10011,128,128,128,126,128,128,128,128,0
10014,129,127,123,129,126,127,128,127,0
10017,123,127,130,128,130,128,128,128,0
10019,130,128,131,127,129,127,129,128,0
10022,126,127,116,123,128,128,130,128,0
10026,128,124,127,128,128,126,129,128,0
10030,131,129,124,128,128,128,126,128,0
10034,131,129,129,128,129,127,125,127,0
10041,129,128,127,126,131,126,127,126,0
10047,126,128,133,128,126,126,128,126,0
10056,121,127,125,127,128,128,129,129,0
10063,134,128,125,127,128,128,127,129,0
10067,132,129,130,126,129,127,126,125,0
10071,123,128,128,129,126,126,127,126,0
10074,123,128,129,128,128,128,129,129,0
10078,130,128,125,127,129,128,127,128,0
10081,132,128,128,128,128,128,126,128,0
10085,125,126,127,128,129,127,127,126,0
10088,125,125,127,127,128,128,125,128,0
10091,128,128,128,126,128,128,127,128,0
10095,129,127,128,126,130,128,126,127,0
10098,121,125,126,126,129,128,127,127,0
10101,133,127,133,128,126,126,128,126,0
10108,126,129,124,127,128,128,128,128,0
10104,128,129,125,126,130,129,129,130,0
10111,127,126,125,127,128,128,128,126,0
10114,123,128,131,128,126,128,126,127,0
10118,130,129,128,128,129,129,127,128,0
10121,128,127,125,127,129,127,126,127,0
10126,129,128,124,128,127,128,128,128,0
10130,129,126,127,129,127,127,126,128,0
10133,129,128,128,123,129,129,129,129,0
10137,125,127,123,127,128,126,127,128,0
10140,127,127,128,129,125,126,129,124,0
10145,131,127,135,128,126,126,126,127,0
10196,130,128,126,127,128,129,127,129,0
10204,126,129,127,128,130,128,128,128,0
10211,127,127,124,128,126,128,127,125,0
10215,123,125,129,130,126,125,128,126,0
10220,130,125,126,125,129,128,128,129,0
10264,127,128,124,127,128,128,129,126,0
10275,129,126,126,127,126,128,128,129,0
10281,126,125,130,128,129,128,126,128,0
10330,127,127,126,128,127,128,127,128,0
10339,128,128,131,127,128,127,128,127,0
10348,131,129,127,128,129,127,126,127,0
10355,127,125,130,129,126,126,127,126,0
10360,121,127,125,126,129,128,129,129,0
10397,131,129,125,126,127,127,128,127,0
10407,128,127,127,129,125,126,128,125,0
10415,127,126,131,129,126,126,127,124,0
10465,134,127,126,127,128,128,128,127,0
10476,131,129,126,127,128,128,126,128,0
10486,129,128,126,127,130,128,127,128,0
10494,129,127,127,128,127,127,126,129,0
10499,125,129,131,129,127,128,127,128,0
10504,131,128,127,126,128,127,129,128,0
10509,125,126,125,129,129,128,128,128,0
10512,124,127,124,128,125,128,128,128,0
10516,131,128,129,128,128,128,126,128,0
10520,127,129,128,128,124,126,127,129,0
10523,127,127,125,128,127,128,128,128,0
10526,122,128,136,128,126,126,128,125,0
10530,130,129,130,129,126,127,127,128,0
10535,129,129,130,126,129,128,127,128,0
10540,130,127,126,128,129,128,127,126,0
10544,131,128,125,127,127,128,127,127,0
10547,130,129,126,126,129,127,128,129,0
10550,127,128,126,127,128,128,129,129,0
10554,122,128,131,129,126,126,128,126,0
10557,126,128,130,128,127,127,127,127,0
10560,122,127,129,128,130,128,127,128,0
10563,133,129,126,127,128,127,127,128,0
10567,127,128,127,127,128,128,126,128,0
10570,127,127,125,128,128,128,129,128,0
10573,125,127,125,128,127,127,129,129,0
10576,131,128,125,127,126,127,127,128,0
10579,124,127,126,128,127,127,127,127,0
10587,132,127,128,128,126,126,127,125,0
10591,126,127,132,128,126,126,126,128,0
10595,132,127,125,126,128,127,129,129,0
10598,127,129,124,127,127,128,128,129,0
10601,122,127,127,127,130,128,129,129,0
10604,125,126,124,127,129,128,129,129,0
10608,127,127,125,127,128,128,128,129,0
10611,127,127,125,127,126,127,127,126,0
10614,129,128,135,128,125,126,127,126,0
10618,123,127,132,128,125,128,129,129,0
10621,130,129,129,128,129,128,128,128,0
10623,129,127,124,127,126,128,126,128,0
10626,126,127,128,126,129,127,126,126,0
10630,135,127,126,127,128,128,127,128,0
10634,127,128,130,127,129,127,127,129,0
10638,123,130,124,127,126,127,128,126,0
10641,123,128,134,129,125,126,128,125,0
10646,120,128,130,129,126,128,127,128,0
10651,129,128,130,126,129,128,127,128,0
10654,130,127,126,128,129,128,128,128,0
10657,125,127,124,128,128,128,128,126,0
10659,128,127,127,128,127,128,126,127,0
10665,134,128,129,126,128,128,127,128,0
10673,127,128,129,126,129,128,127,128,0
10676,123,126,128,129,126,125,128,125,0
10679,123,128,131,128,125,126,127,128,0
10683,131,128,126,126,129,127,128,129,0
10686,132,128,124,126,127,128,127,128,0
10689,128,128,125,128,125,128,127,127,0
10734,126,124,128,128,129,128,130,129,0
10743,125,130,125,126,127,127,127,129,0
10751,134,129,126,127,126,127,128,128,0
10755,129,127,125,127,125,128,127,128,0
10759,128,126,124,127,128,127,126,126,0
10763,130,127,127,129,129,127,127,128,0
10769,124,127,131,130,125,125,127,126,0
10772,123,128,129,128,127,126,130,127,0
10775,119,129,129,128,127,127,127,129,0
10778,129,128,126,127,128,128,127,128,0
10782,132,129,125,126,128,128,126,127,0
10785,126,126,128,129,129,128,129,128,0
10788,127,127,124,127,127,127,127,128,0
10792,129,129,129,125,128,127,127,128,0
10799,134,128,129,126,129,127,128,128,0
10802,129,126,128,128,128,126,127,126,0
10806,127,127,131,129,126,125,127,126,0
10810,123,126,127,127,128,128,127,128,0
10814,131,128,129,126,130,127,129,128,0
10819,131,126,124,129,128,128,128,127,0
10823,125,125,126,125,131,127,127,127,0
10826,129,128,128,128,128,128,127,128,0
10829,126,128,134,129,128,127,128,127,0
10833,124,129,123,127,128,127,128,126,0
10838,128,129,134,127,127,126,128,127,0
10841,119,127,129,128,129,129,129,129,0
10844,129,128,129,126,129,128,127,128,0
10847,129,127,127,128,129,128,130,128,0
10849,128,127,124,127,128,128,127,127,0
10852,128,128,128,124,129,128,128,129,0
10856,127,127,125,128,127,128,128,129,0
10859,129,128,127,128,129,127,127,127,0
10863,127,128,134,128,126,126,128,126,0
10866,121,127,128,128,127,129,127,128,0
10870,132,128,128,127,128,128,126,127,0
10874,133,126,128,126,126,127,125,125,0
10878,128,127,128,129,127,126,128,127,0
10881,116,129,123,124,129,128,128,129,0
10884,128,129,126,128,129,128,127,128,0
10888,131,128,127,126,128,129,128,128,0
10891,128,123,130,128,128,127,129,128,0
10895,127,126,125,126,127,128,127,128,0
10898,129,129,127,127,127,127,126,127,0
10900,128,128,130,129,126,127,126,127,0
10904,127,127,126,128,126,128,129,128,0
10907,124,128,126,127,126,127,126,128,0
10910,127,128,129,128,128,128,129,128,0
10914,130,126,125,127,129,127,128,126,0
10936,127,129,135,128,127,126,127,125,0
10941,123,128,131,128,126,126,127,129,0
10945,132,128,126,126,128,128,128,129,0
10948,131,127,125,128,128,128,127,128,0
10951,131,123,129,127,128,127,127,125,0
11004,124,127,130,129,126,126,128,128,0
11014,131,127,127,126,129,128,127,128,0
11027,128,129,126,128,129,128,127,128,0
11034,127,126,127,128,129,130,126,128,0
11041,127,126,124,128,127,128,129,129,0
11048,126,127,128,127,128,128,128,128,0
11054,132,127,125,128,125,126,127,126,0
11057,122,128,131,128,126,126,126,127,0
11060,121,127,128,128,129,130,128,129,0
11064,131,128,126,126,128,128,128,128,0
11067,132,128,127,128,128,128,126,126,0
11071,133,125,129,126,127,128,126,127,0
11074,124,127,126,127,130,129,129,130,0
11077,126,129,124,127,129,128,128,129,0
11080,129,129,128,128,125,128,129,127,0
11084,129,127,124,128,128,127,129,127,0
11087,127,126,125,127,128,127,127,127,0
11090,125,126,131,129,128,128,128,129,0
11094,129,129,123,127,126,127,129,128,0
11097,131,128,128,129,125,126,127,125,0
11100,125,128,134,126,126,126,128,125,0
11103,123,127,127,129,129,128,128,130,0
11106,131,128,124,126,127,128,128,128,0
11110,132,127,125,127,127,127,129,127,0
11117,133,126,129,127,131,127,128,127,0
11120,128,127,129,128,130,127,128,129,0
11123,126,128,125,126,127,128,129,129,0
11126,128,127,125,129,123,127,127,126,0
11129,126,126,128,129,127,126,129,124,0
11131,130,127,131,130,125,128,129,129,0
11135,129,128,128,128,129,128,127,128,0
11138,128,129,129,128,131,128,127,127,0
11141,130,126,129,126,127,128,127,128,0
11144,127,128,129,127,129,128,126,127,0
11147,128,129,132,129,129,127,127,128,0
11150,125,127,131,130,126,126,127,126,0
11153,125,128,133,128,125,127,126,126,0
11156,123,127,130,128,130,128,130,128,0
11159,133,128,125,126,128,128,127,128,0
11165,125,127,128,127,129,128,128,128,0
11162,129,128,128,127,130,128,129,129,0
11168,130,126,123,127,128,128,128,129,0
11173,132,128,127,128,127,128,125,128,0
11176,126,128,129,126,124,126,126,127,0
11179,130,129,129,129,126,126,128,125,0
11183,125,127,133,130,126,127,129,128,0
11186,131,128,128,128,128,128,127,129,0
11190,129,129,124,128,129,128,129,128,0
11194,119,127,128,128,126,129,130,129,0
11197,128,127,125,127,126,128,127,127,0
11200,130,128,126,127,127,127,128,128,0
11203,130,129,131,128,126,128,126,128,0
11207,127,126,126,128,127,127,128,126,0
11210,128,126,124,128,124,127,128,128,0
11213,130,128,127,129,127,128,127,129,0
11218,126,128,130,129,129,128,128,126,0
11225,126,128,133,129,126,125,127,126,0
11228,123,128,131,128,126,126,126,128,0
11231,133,128,124,125,128,128,128,129,0
11234,129,128,125,127,128,128,127,128,0
11237,127,128,128,128,125,128,130,126,0
11240,119,126,130,129,126,128,130,129,0
11243,131,128,126,126,129,128,128,128,0
11247,132,127,125,126,127,128,127,128,0
11249,128,128,123,127,128,127,126,128,0
11252,131,125,127,126,128,128,128,128,0
11255,128,127,124,127,128,128,126,127,0
11258,128,127,132,128,128,127,127,127,0
11260,133,126,128,129,125,125,128,124,0
11263,129,127,133,129,127,126,127,127,0
11267,125,128,124,126,127,128,126,129,0
11270,127,128,126,127,127,128,127,128,0
11273,129,126,128,128,124,127,128,128,0
11276,127,126,127,128,129,128,126,127,0
11279,126,129,127,127,129,128,128,128,0
11282,131,128,125,127,128,127,128,127,0
11286,132,127,124,129,125,126,127,125,0
11290,126,127,134,129,127,126,128,127,0
11293,119,128,124,127,129,128,127,128,0
11296,131,128,127,127,127,129,129,129,0
11300,132,128,126,128,128,128,127,126,0
11304,126,127,131,128,125,126,127,126,0
11307,123,127,125,127,129,128,126,128,0
11311,131,129,129,128,129,128,128,128,0
11314,132,128,124,125,127,128,126,127,0
11318,130,126,130,128,132,130,126,128,0
11326,130,126,129,125,128,128,126,128,0
11329,130,128,125,127,128,127,128,128,0
11333,128,126,129,130,127,126,127,127,0
11336,122,129,131,128,126,126,127,127,0
11339,127,127,123,127,128,128,127,129,0
11342,130,128,125,128,128,128,127,128,0
11345,132,128,127,128,127,127,127,127,0
11348,132,127,123,128,127,128,127,127,0
11351,128,126,126,128,128,128,127,128,0
11354,131,129,128,128,128,128,127,127,0
11357,128,127,128,129,124,127,127,126,0
11360,132,126,127,128,129,128,127,127,0
11363,133,126,128,130,129,127,127,127,0
11366,131,130,121,126,128,128,128,129,0
11369,121,130,128,128,129,127,127,127,0
11372,119,128,132,128,126,126,129,125,0
11376,128,129,135,128,125,126,128,128,0
11379,129,128,125,127,127,128,128,129,0
11381,129,127,123,127,126,128,128,128,0
11384,131,127,125,128,128,127,126,127,0
11387,129,125,128,128,129,128,128,129,0
11390,127,128,125,128,129,128,128,128,0
11392,129,128,126,128,128,128,128,127,0
11395,126,127,124,128,127,126,128,125,0
11398,129,128,132,127,125,126,126,128,0
11400,127,129,128,128,129,128,127,128,0
11403,130,127,126,128,129,128,127,129,0
11406,125,126,125,127,128,127,129,128,0
11410,123,127,126,128,125,126,127,126,0
11414,125,129,126,126,128,128,126,128,0
11420,130,129,128,128,129,128,128,128,0
11425,127,125,130,129,126,126,128,125,0
11428,123,128,132,129,126,127,127,128,0
11431,131,129,126,125,128,128,127,128,0
11436,130,129,129,128,129,128,129,128,0
11439,130,126,124,124,127,129,126,127,0
11442,129,127,127,128,131,127,127,128,0
11445,124,128,128,125,128,128,129,129,0
11448,130,126,125,126,129,128,127,127,0
11451,131,129,125,127,126,127,126,127,0
11454,126,126,127,127,128,128,129,128,0
11457,120,128,133,129,126,126,126,126,0
11460,124,128,128,128,130,128,127,129,0
11464,126,128,124,128,128,128,127,127,0
11467,125,127,130,128,126,127,129,126,0
11470,124,127,128,128,129,128,127,128,0
11473,130,128,130,128,126,127,126,128,0
11476,129,128,125,125,129,128,128,128,0
11479,123,126,126,128,126,128,128,125,0
11482,121,129,125,124,128,128,128,129,0
11486,128,128,125,127,128,128,129,128,0
11489,125,127,126,128,129,127,126,127,0
11493,132,128,127,128,126,125,127,125,0
11497,127,128,130,128,125,128,128,129,0
11500,130,128,126,127,128,128,128,129,0
11502,125,128,124,126,128,128,127,128,0
11506,122,128,126,127,129,126,127,127,0
11509,128,128,131,129,129,127,128,129,0
11514,130,127,126,126,129,128,126,127,0
11520,128,128,129,128,128,128,128,125,0
11523,129,127,136,128,125,126,129,126,0
11526,125,128,129,129,128,128,127,128,0
11529,132,128,130,128,128,128,128,129,0
11532,129,126,122,128,125,128,129,127,0
11535,132,126,128,129,127,129,127,128,0
11538,129,127,126,126,129,127,129,129,0
11540,128,128,123,127,129,128,129,129,0
11543,124,127,125,127,128,128,129,128,0
11546,122,127,126,126,127,126,129,127,0
11550,126,129,132,129,126,127,129,129,0
11553,130,128,125,128,128,127,127,128,0
11556,129,127,128,129,128,128,126,127,0
11559,132,125,125,126,125,127,127,127,0
11561,131,126,124,126,126,128,130,128,0
11566,133,128,126,127,127,127,125,126,0
11569,131,128,131,127,127,128,128,128,0
11573,124,130,131,126,126,127,129,126,0
11577,124,129,131,128,126,129,128,129,0
11580,131,129,125,127,128,129,127,128,0
11584,132,128,127,127,129,128,126,127,0
11587,126,127,131,127,126,126,129,126,0
11589,122,127,125,127,130,130,128,128,0
11594,134,128,128,127,129,128,127,129,0
11597,130,129,128,127,131,128,129,128,0
11599,130,127,126,127,128,127,126,127,0
11604,126,127,126,126,126,128,127,128,0
11607,127,128,129,126,127,128,126,128,0
11609,131,127,128,129,126,128,127,126,0
11612,121,127,132,131,126,126,127,125,0
11615,122,127,129,125,126,126,128,129,0
11620,127,129,129,126,129,128,126,128,0
11630,131,128,127,128,129,128,126,127,0
11634,130,127,123,127,127,127,127,127,0
11638,129,127,127,126,128,128,127,128,0
11642,127,128,125,127,126,127,128,128,0
11645,130,128,124,128,126,127,128,127,0
11648,132,127,125,127,125,127,128,129,0
11652,123,127,125,128,128,128,129,128,0
11656,128,128,127,128,127,127,128,129,0
11659,130,128,124,127,127,128,127,128,0
11663,122,128,135,127,125,125,128,125,0
11666,123,127,131,129,126,126,127,125,0
11669,124,126,128,128,129,128,127,128,0
11673,129,128,124,127,131,128,128,129,0
11676,126,128,129,128,125,128,127,127,0
11679,131,125,124,128,125,128,128,128,0
11682,129,128,128,127,128,128,126,129,0
11685,129,130,130,128,128,127,126,128,0
11688,126,128,126,127,128,128,128,127,0
11691,123,129,135,129,126,126,126,125,0
11693,123,127,127,127,129,128,128,128,0
11696,130,128,127,129,130,128,127,129,0
11699,126,127,128,129,126,127,127,125,0
11702,127,126,132,129,126,126,127,127,0
11707,128,127,129,126,129,129,128,129,0
11711,126,129,127,125,129,128,128,129,0
11714,129,127,125,127,128,127,126,127,0
11716,127,127,126,126,125,127,126,127,0
11719,129,127,127,128,129,128,127,128,0
11722,130,128,126,128,128,128,128,129,0
11727,124,128,127,126,129,127,125,127,0
11732,129,127,128,130,125,126,127,125,0
11736,123,128,132,130,124,127,126,129,0
11739,129,128,126,125,128,128,127,128,0
11743,128,127,126,128,129,128,127,129,0
11746,130,126,123,128,125,128,129,129,0
11749,123,127,128,129,129,128,129,128,0
11752,130,128,125,127,129,128,129,128,0
11755,127,127,128,128,129,127,127,127,0
11758,128,127,126,128,126,127,127,127,0
11761,124,127,131,128,126,126,127,126,0
11764,123,128,130,129,127,126,128,126,0
11767,126,127,125,127,128,129,127,127,0
11771,131,128,126,127,127,130,128,125,0
11774,124,128,129,127,128,129,127,128,0
11777,134,129,128,125,129,129,129,129,0
11780,129,128,125,127,127,128,129,128,0
11783,132,126,125,128,129,128,129,128,0
11786,126,127,125,126,128,127,129,128,0
11789,127,127,126,128,129,127,129,128,0
11792,125,130,126,127,126,125,128,126,0
11794,126,128,133,129,125,126,128,125,0
11797,124,127,130,129,126,127,128,128,0
11800,128,130,129,126,129,128,128,129,0
11802,133,127,127,127,128,128,126,128,0
11805,125,128,128,128,129,128,128,128,0
11807,122,128,124,127,127,127,127,128,0
11810,130,127,125,127,126,127,128,129,0
11813,130,129,126,127,127,128,126,127,0
11817,128,128,128,128,127,128,127,127,0
11822,128,124,131,128,125,126,127,125,0
11825,126,128,131,128,128,129,127,128,0
11828,131,128,126,128,129,128,129,126,0
11833,130,128,128,128,130,127,126,127,0
11836,123,127,131,128,126,126,128,126,0
11838,123,127,125,127,129,128,127,129,0
11844,131,128,125,127,128,128,127,128,0
11847,129,126,128,128,129,130,126,128,0
11851,128,126,128,127,128,128,129,129,0
11854,125,129,125,127,128,128,128,128,0
11857,133,128,131,127,127,128,128,126,0
11860,132,126,127,129,127,127,127,126,0
11863,130,127,131,128,126,125,129,126,0
11866,120,127,126,128,129,128,126,129,0
11868,130,128,129,128,129,128,127,128,0
11872,124,125,127,128,125,126,128,128,0
11875,120,128,133,127,126,126,127,125,0
11879,131,129,129,125,129,128,127,129,0
11882,131,129,126,127,128,129,127,128,0
11886,129,127,126,128,129,127,127,128,0
11889,125,126,127,127,127,127,127,127,0
11892,130,127,126,128,128,128,127,129,0
11897,128,130,129,128,128,128,127,128,0
11900,131,128,125,128,129,128,127,126,0
11903,125,128,132,128,126,126,128,126,0
11906,124,127,127,127,132,129,128,129,0
11910,127,129,126,127,129,128,128,128,0
11914,129,128,125,127,129,128,128,127,0
11918,127,126,128,128,130,128,128,128,0
11922,125,128,128,127,128,128,127,127,0
11929,128,128,130,127,128,127,128,128,0
11932,129,127,127,128,129,127,128,128,0
11936,129,126,127,127,126,126,129,125,0
11939,125,128,132,129,125,126,128,128,0
11943,131,128,125,125,127,128,127,128,0
11946,132,127,125,127,125,129,128,128,0
11949,125,128,126,128,128,128,128,128,0
11953,127,127,127,126,128,128,129,129,0
11957,128,127,124,126,126,127,127,128,0
11959,129,126,126,127,128,128,127,128,0
11962,128,128,131,128,126,126,128,124,0
11965,126,128,133,128,125,126,127,126,0
11967,125,128,125,127,129,128,130,129,0
11970,130,126,124,127,127,127,128,127,0
11973,127,127,124,128,129,129,127,128,0
11977,128,128,128,128,127,128,126,127,0
11981,131,127,128,128,128,129,126,128,0
11984,127,127,127,127,129,128,128,129,0
11987,121,128,133,127,126,126,128,125,0
11990,124,127,132,129,126,126,128,129,0
11994,130,128,127,129,129,128,128,128,0
11997,131,128,125,126,127,127,127,128,0
12001,124,126,127,128,125,130,126,127,0
12004,127,128,126,128,127,128,126,127,0
12007,128,129,132,129,128,128,127,127,0
12010,128,128,131,129,128,127,126,127,0
12012,124,127,124,127,129,127,129,126,0
12017,125,127,134,129,127,126,127,125,0
12021,127,128,127,128,128,128,128,128,0
12027,132,129,125,127,128,128,128,129,0
12033,125,126,127,127,127,128,129,127,0
12036,127,126,125,127,127,128,127,127,0
12039,128,129,128,128,128,128,129,129,0
12041,130,128,129,128,128,127,129,128,0
12045,127,126,126,126,128,128,128,126,0
12048,124,127,133,128,127,127,129,126,0
12051,125,126,130,128,129,128,127,128,0
12055,130,128,127,128,129,128,127,128,0
12058,127,128,122,125,128,129,127,126,0
12061,123,128,136,129,125,126,128,127,0
12064,124,128,120,125,129,128,127,129,0
12066,128,129,126,128,129,129,131,129,0
12069,131,128,124,127,127,128,128,126,0
12073,126,128,126,127,128,127,126,127,0
12077,125,128,126,126,128,128,129,129,0
12081,133,128,126,127,127,127,126,127,0
12084,130,127,127,128,126,129,127,126,0
12087,123,128,133,128,126,126,128,128,0
12090,119,125,130,129,129,128,127,129,0
12093,128,128,127,127,129,129,128,129,0
12097,129,126,123,125,130,128,129,128,0
12099,125,126,129,126,129,128,125,127,0
12103,127,128,131,129,128,128,127,130,0
12106,125,129,126,125,129,128,129,129,0
12109,126,127,125,128,129,128,128,128,0
12112,127,127,127,129,128,127,129,126,0
12116,125,128,132,130,125,126,126,126,0
12119,124,128,124,128,127,128,130,128,0
12123,127,126,124,127,128,127,128,128,0
12127,130,127,124,128,127,128,126,127,0
12132,133,127,128,128,128,128,127,128,0
12136,129,129,130,128,128,127,127,127,0
12139,121,127,132,128,127,126,129,125,0
12142,127,128,130,129,126,126,127,126,0
12145,123,127,124,125,129,128,128,128,0
12148,132,129,125,128,128,128,128,128,0
12150,134,128,126,125,127,127,126,127,0
12169,129,126,127,127,127,127,129,127,0
12173,129,128,124,127,128,128,128,128,0
12177,132,129,126,127,127,127,127,128,0
12180,129,128,128,128,127,126,127,126,0
12184,122,128,133,129,126,126,127,125,0
12239,119,127,131,128,126,128,128,128,0
12249,134,128,127,128,130,128,130,128,0
12263,135,128,124,127,127,128,129,131,0
12268,123,128,125,127,127,128,127,128,0
12273,125,127,125,127,129,128,130,129,0
12276,130,128,125,127,128,128,126,127,0
12280,135,127,129,128,128,127,126,126,0
12284,121,130,133,129,126,126,128,127,0
12287,121,127,130,127,131,129,129,129,0
12290,130,128,126,128,128,128,126,128,0
12294,129,128,129,127,129,129,129,127,0
12297,126,127,124,125,131,128,129,127,0
12300,127,126,128,129,128,128,128,129,0
12303,127,127,126,127,127,128,128,129,0
12307,127,127,124,126,128,128,127,128,0
12311,130,126,124,126,128,128,128,125,0
12316,125,129,132,127,126,126,127,128,0
12319,130,128,130,128,129,128,127,128,0
12322,129,129,127,126,130,128,127,128,0
12325,128,127,124,126,129,127,129,127,0
12328,126,126,127,128,127,129,126,128,0
12331,128,127,129,128,128,128,126,128,0
12335,127,128,129,127,129,127,127,127,0
12338,127,127,125,128,128,127,126,126,0
12341,128,126,131,129,126,126,128,126,0
12375,126,128,133,129,125,127,129,130,0
12385,127,128,123,127,127,128,129,129,0
12393,128,127,127,128,128,128,127,128,0
12399,121,126,129,130,127,125,128,126,0
12404,123,127,126,128,132,128,127,129,0
12442,132,128,124,127,128,127,127,128,0
12452,129,128,130,128,129,127,128,128,0
12462,123,127,126,129,129,128,130,127,0
12470,130,127,125,127,128,128,129,128,0
12476,128,129,125,128,126,128,128,128,0
12481,130,127,126,129,125,126,127,126,0
12486,125,127,129,128,126,126,128,126,0
12490,127,128,128,128,128,128,128,128,0
12493,128,128,128,127,129,128,129,129,0
12497,127,127,126,128,128,127,128,127,0
12500,134,125,127,128,129,128,128,128,0
12503,130,127,124,128,127,128,129,129,0
12506,125,130,125,127,127,129,128,128,0
12509,131,128,127,125,128,127,128,128,0
12514,124,127,127,128,124,127,127,125,0
12520,126,127,132,129,126,126,127,128,0
12525,131,129,128,127,129,129,128,129,0
12528,126,128,129,127,131,127,127,128,0
12531,130,126,125,128,129,127,128,127,0
12534,132,128,127,127,128,129,127,128,0
12537,127,128,128,126,129,128,127,126,0
12541,123,129,133,128,126,127,128,126,0
12544,124,127,130,129,125,126,127,125,0
12547,123,126,127,127,131,129,127,129,0
12550,133,128,126,127,129,129,128,128,0
12558,131,128,126,128,130,129,131,128,0
12561,128,127,127,128,127,128,127,128,0
12565,128,128,126,124,129,127,127,128,0
12569,130,128,130,128,128,127,127,128,0
12572,127,126,127,129,128,126,128,127,0
12575,131,127,125,125,126,127,128,128,0
12579,126,126,126,128,125,128,127,129,0
12582,130,128,126,128,127,127,128,129,0
12585,122,125,130,129,125,125,127,126,0
12588,127,127,132,129,125,126,128,127,0
12592,118,128,131,127,125,130,129,130,0
12595,130,128,125,127,128,128,128,128,0
12598,132,127,126,126,128,128,125,128,0
12601,130,126,123,128,130,127,128,128,0
12605,127,126,125,129,128,128,127,128,0
12608,126,128,128,126,129,128,126,128,0
12611,132,127,131,127,129,126,127,127,0
12614,126,128,125,128,128,128,127,127,0
12617,125,127,126,127,127,128,129,128,0
12620,128,127,124,128,127,127,127,127,0
12629,129,127,127,128,125,128,126,127,0
12625,126,128,125,128,128,128,127,126,0
12633,122,129,127,129,126,126,130,125,0
12636,127,130,135,129,125,126,126,128,0
12639,129,128,131,128,128,128,127,128,0
12644,129,128,118,126,129,128,127,127,0
12648,121,127,132,129,126,126,127,126,0
12651,124,127,125,128,128,128,128,129,0
12654,131,129,123,126,129,127,126,128,0
12657,132,126,127,127,126,128,127,127,0
12661,122,128,127,128,128,128,125,127,0
12664,129,128,132,128,129,128,126,128,0
12667,130,128,127,130,127,128,129,127,0
12670,130,127,128,125,131,126,127,125,0
12714,129,128,131,128,125,126,128,126,0
12732,123,126,125,124,129,129,128,129,0
12736,129,129,127,128,129,128,128,127,0
12740,131,127,129,126,130,129,128,128,0
12744,126,127,124,127,127,127,126,128,0
12782,124,128,131,130,129,127,127,128,0
12791,132,129,124,124,129,128,126,128,0
12799,129,128,124,127,127,129,128,125,0
12807,124,126,134,129,126,126,129,126,0
12813,129,127,130,128,130,128,128,129,0
12816,130,129,127,128,129,129,127,128,0
12820,129,128,125,128,131,128,130,129,0
12824,127,125,125,126,128,128,128,128,0
12827,126,127,124,127,126,127,127,128,0
12830,129,129,128,128,128,129,128,129,0
12834,125,128,126,126,128,126,127,126,0
12839,124,127,132,129,126,126,127,125,0
12844,122,127,133,128,127,128,127,128,0
12849,130,129,126,127,128,128,126,127,0
12852,131,128,128,128,129,128,127,127,0
12856,133,126,128,127,131,128,129,128,0
12861,131,127,125,129,128,128,126,127,0
12865,132,128,130,127,127,128,127,126,0
12868,126,128,126,126,128,128,129,128,0
12871,122,127,133,129,126,126,127,125,0
12875,126,127,129,129,130,128,128,128,0
12878,130,128,128,127,128,128,127,128,0
12881,130,128,126,128,126,127,128,128,0
12885,128,127,126,126,128,127,129,127,0
12888,130,126,126,128,127,127,129,129,0
12891,128,128,128,128,128,128,129,129,0
12895,126,128,125,126,129,128,127,128,0
12898,124,126,125,128,128,128,129,128,0
12901,131,125,128,127,125,126,127,126,0
12904,129,127,132,130,124,126,128,128,0
12908,129,128,125,127,126,127,127,128,0
12914,126,129,128,128,129,128,128,127,0
12919,126,126,125,127,128,127,127,128,0
