Start Recording
16,124,127,127,128,130,129,127,128,0
22,135,129,126,125,128,128,128,129,0
26,131,129,126,127,129,128,128,128,0
31,129,126,128,129,126,126,127,126,0
34,123,127,128,127,129,128,128,128,0
38,131,128,125,125,128,128,129,129,0
41,129,128,129,127,128,127,127,127,0
45,128,126,129,128,128,128,129,127,0
48,129,127,126,128,127,128,128,129,0
52,130,128,127,129,128,128,127,127,0
55,125,128,127,126,128,126,127,128,0
59,127,126,127,128,127,127,128,126,0
63,124,129,127,130,126,126,127,126,0
68,124,128,131,130,126,128,127,127,0
71,131,129,118,126,129,128,128,129,0
74,127,127,126,127,126,128,129,128,0
83,119,127,126,128,128,128,128,128,0
87,129,128,127,127,127,128,126,128,0
91,129,128,128,129,127,127,126,127,0
94,126,126,128,128,128,128,127,127,0
98,126,127,127,128,129,128,127,129,0
101,132,128,127,127,126,126,128,128,0
105,131,127,127,128,127,128,128,127,0
108,120,129,127,129,128,127,128,125,0
114,128,128,127,129,127,126,127,129,0
117,131,128,128,128,129,128,128,129,0
120,130,128,127,127,127,128,127,127,0
123,126,127,128,127,126,128,127,128,0
125,122,125,129,127,129,128,128,129,0
129,126,127,126,127,129,128,129,129,0
132,128,128,128,127,127,127,129,128,0
135,120,128,127,129,126,126,127,126,0
138,125,128,126,128,127,126,127,127,0
141,122,129,127,125,128,128,128,128,0
144,136,127,126,125,127,127,127,127,0
147,130,125,127,128,129,128,130,126,0
150,122,128,127,128,126,126,127,126,0
165,125,127,126,128,129,129,128,128,0
169,133,129,128,126,129,128,128,128,0
172,128,127,127,128,128,128,129,128,0
176,120,126,125,128,127,128,127,128,0
180,130,127,124,129,128,127,129,129,0
184,126,127,131,127,125,127,127,128,0
187,128,129,124,126,129,128,127,127,0
190,128,126,131,129,126,125,127,126,0
205,125,129,127,129,129,128,127,129,0
209,128,128,126,128,128,128,129,128,0
213,127,126,126,128,129,128,128,129,0
217,127,128,129,126,127,128,128,126,0
220,131,128,127,128,129,128,129,129,0
223,133,128,128,127,128,127,127,127,0
227,129,127,128,127,128,128,127,127,0
231,120,127,128,129,127,127,128,125,0
235,130,128,127,129,129,128,127,129,0
238,131,128,127,127,130,128,128,129,0
241,129,127,128,127,125,128,127,127,0
244,115,127,128,129,126,126,127,127,0
247,123,126,128,127,130,128,129,128,0
250,131,128,126,127,128,128,127,128,0
253,131,129,127,124,128,128,129,128,0
256,120,127,127,127,126,127,127,127,0
259,128,128,130,129,126,128,127,127,0
263,131,129,128,128,129,128,129,128,0
266,126,128,128,127,126,128,126,127,0
277,119,127,128,130,127,127,128,126,0
281,124,128,128,129,127,126,126,128,0
284,131,129,127,126,129,128,126,128,0
288,131,128,127,125,127,128,130,127,0
291,131,126,131,125,128,128,127,128,0
294,127,128,127,127,127,127,126,128,0
298,134,129,127,127,130,127,128,128,0
301,131,127,126,127,126,128,128,128,0
313,125,126,127,127,125,126,127,126,0
316,122,128,128,130,127,126,126,129,0
320,131,129,129,127,129,128,128,128,0
324,133,128,130,128,129,127,127,127,0
327,127,127,127,128,129,128,127,127,0
381,129,127,131,128,128,128,126,127,0
388,130,129,127,127,129,127,128,128,0
396,126,126,127,126,129,128,129,128,0
400,118,128,128,129,126,126,127,127,0
405,124,127,129,128,127,126,127,127,0
448,126,128,126,128,128,128,128,128,0
454,129,129,125,125,128,128,127,127,0
459,129,126,127,128,129,128,126,127,0
464,124,126,128,128,129,127,128,128,0
468,129,128,126,126,128,128,126,127,0
472,130,127,127,129,128,127,128,127,0
477,127,128,129,128,127,126,127,126,0
481,120,128,127,130,126,127,126,128,0
484,130,128,126,126,129,128,128,128,0
488,133,128,128,127,129,128,128,128,0
491,125,127,127,126,129,127,128,128,0
494,125,126,128,126,128,128,128,128,0
498,129,128,128,128,127,128,126,128,0
501,133,128,128,127,126,127,128,128,0
505,123,126,128,127,129,128,128,127,0
508,125,126,126,127,126,126,126,126,0
511,125,128,128,130,127,126,127,126,0
516,122,129,128,126,129,128,129,128,0
520,132,127,128,127,126,128,126,127,0
585,129,125,126,127,125,127,128,128,0
592,131,127,129,128,127,128,127,128,0
597,134,129,126,127,127,128,127,127,0
604,126,126,128,130,127,126,128,126,0
610,123,127,127,129,127,126,128,127,0
652,125,128,127,127,130,128,128,128,0
663,131,128,127,126,128,129,128,128,0
673,132,126,131,128,127,128,127,127,0
682,124,127,127,127,126,128,128,128,0
685,129,128,127,127,128,127,127,128,0
689,130,128,126,126,129,128,127,127,0
692,130,127,127,129,123,128,127,127,0
695,127,126,126,128,125,128,127,127,0
699,130,126,127,127,129,128,128,128,0
702,126,128,127,127,128,127,127,128,0
705,123,128,128,130,127,126,127,126,0
708,127,126,128,129,127,126,127,127,0
711,124,127,127,129,126,128,127,129,0
715,132,128,129,128,129,128,127,128,0
718,130,127,126,128,129,128,128,128,0
721,125,126,126,128,129,127,126,127,0
725,128,128,129,127,128,128,126,128,0
728,134,128,128,127,126,127,127,127,0
732,131,128,132,131,125,127,127,126,0
735,123,128,127,127,127,127,128,126,0
739,121,128,128,128,127,126,129,129,0
742,129,128,126,128,130,128,128,128,0
745,130,127,126,125,128,128,127,127,0
748,129,126,129,127,129,128,127,128,0
752,126,127,127,128,130,128,128,128,0
757,131,128,128,126,129,128,128,129,0
762,124,128,130,127,125,127,127,127,0
765,124,128,128,130,126,126,127,125,0
768,124,127,126,127,130,129,127,128,0
771,132,128,127,126,130,128,128,128,0
774,130,127,127,128,127,127,126,127,0
776,131,126,127,128,129,128,129,128,0
787,129,126,127,127,127,128,127,128,0
790,129,127,128,126,129,128,129,129,0
793,126,128,127,127,128,128,128,128,0
796,121,128,126,128,124,127,127,127,0
800,126,128,129,130,126,126,128,127,0
803,126,128,128,129,127,126,127,128,0
806,133,129,129,128,127,128,127,127,0
809,126,124,128,127,126,127,129,128,0
812,127,127,127,129,126,126,126,126,0
815,129,129,127,126,128,128,128,128,0
818,135,129,129,126,127,127,129,129,0
856,125,126,129,127,127,127,126,124,0
862,124,127,127,125,128,128,128,129,0
867,130,128,127,127,127,128,126,128,0
871,129,128,128,127,130,128,128,127,0
876,127,127,127,127,125,127,126,125,0
880,124,127,126,129,126,127,126,127,0
923,124,130,127,129,125,128,128,129,0
933,130,128,127,126,127,127,127,127,0
942,126,128,129,128,129,128,127,126,0
947,122,127,127,129,127,127,128,126,0
951,121,128,128,126,130,128,127,128,0
954,134,128,127,126,128,128,128,128,0
958,128,127,128,125,124,127,128,126,0
961,121,126,127,127,129,128,129,130,0
964,121,128,128,128,128,128,127,128,0
967,129,128,127,127,130,128,128,128,0
973,124,126,128,128,126,127,127,127,0
976,126,126,126,126,129,128,129,128,0
979,127,128,129,128,128,128,126,127,0
983,130,129,129,128,128,128,126,128,0
985,128,128,128,130,128,126,127,125,0
989,129,129,128,130,127,126,127,127,0
992,124,127,126,127,130,128,128,128,0
995,129,128,126,128,129,129,128,129,0
998,126,127,127,125,128,130,129,129,0
1001,127,126,128,126,129,128,128,128,0
1004,125,127,127,128,130,128,128,129,0
1006,126,128,126,126,127,128,128,128,0
1009,127,127,128,130,126,126,127,125,0
1012,125,128,127,129,125,126,127,127,0
1014,125,127,126,128,129,128,128,129,0
1019,130,129,128,125,128,128,128,128,0
1024,132,128,128,127,128,128,127,128,0
1027,130,125,129,128,127,128,126,127,0
1030,129,128,123,128,129,128,128,128,0
1034,130,128,127,128,129,128,127,128,0
1038,125,127,127,129,124,127,127,126,0
1044,125,128,127,130,127,127,126,125,0
1048,124,127,128,129,130,128,127,129,0
1054,132,128,127,128,130,128,128,129,0
1057,129,128,126,128,128,128,129,129,0
1060,127,127,129,127,125,128,128,128,0
1063,125,127,127,127,128,128,126,127,0
1066,132,128,130,128,127,129,127,128,0
1070,130,128,126,127,128,127,127,128,0
1073,129,128,128,128,129,127,128,125,0
1076,127,128,127,130,126,126,127,128,0
1079,129,128,127,126,128,128,127,127,0
1126,130,128,126,128,129,128,127,127,0
1131,119,127,127,129,126,126,127,125,0
1136,124,128,127,128,125,128,126,127,0
1141,129,128,128,126,128,128,127,127,0
1145,132,128,128,127,129,129,129,128,0
1192,125,127,127,127,128,128,127,127,0
1198,123,126,130,126,126,127,127,128,0
1203,130,129,128,127,129,128,127,128,0
1208,127,127,127,126,128,128,127,128,0
1211,121,127,129,128,127,127,127,125,0
1215,122,128,128,129,127,126,126,126,0
1219,124,127,129,128,130,128,128,129,0
1222,130,128,126,125,128,128,129,127,0
1226,128,127,127,128,126,126,127,126,0
1229,125,127,128,127,127,127,128,127,0
1234,133,128,127,127,129,127,128,129,0
1240,131,128,126,127,129,128,128,128,0
1244,130,128,129,128,128,128,127,128,0
1247,124,125,128,129,123,128,129,129,0
1250,123,129,128,127,129,128,129,129,0
1254,131,128,126,128,127,128,128,128,0
1257,131,126,127,128,130,129,128,127,0
1260,124,126,128,130,126,126,127,126,0
1264,125,128,127,127,129,128,129,129,0
1267,132,128,127,127,128,128,127,128,0
1270,129,128,131,127,127,127,128,127,0
1275,122,125,128,126,128,128,126,126,0
1278,131,129,128,128,129,128,127,128,0
1281,126,129,126,128,127,128,128,129,0
1283,126,126,130,130,126,127,127,126,0
1286,125,128,128,129,127,126,129,127,0
1289,125,129,128,127,128,128,129,128,0
1292,131,129,127,125,129,128,128,128,0
1294,130,127,125,126,127,128,126,128,0
1297,128,125,128,126,127,127,128,128,0
1300,127,128,127,127,126,128,127,128,0
1303,129,129,126,128,127,127,126,127,0
1307,129,128,129,127,127,128,128,126,0
1311,121,126,127,126,125,128,128,129,0
1313,120,128,129,128,129,128,127,128,0
1316,127,128,128,128,127,127,129,128,0
1319,125,128,128,130,127,126,127,126,0
1322,127,127,127,129,126,126,127,126,0
1325,125,127,128,128,130,128,127,128,0
1328,133,129,128,127,129,128,127,128,0
1332,130,128,125,127,128,127,128,129,0
1338,126,126,128,129,127,126,127,125,0
1342,123,128,127,128,126,127,128,129,0
1345,132,129,126,125,129,128,127,128,0
1348,129,128,127,128,129,128,126,126,0
1352,122,126,127,127,129,128,128,129,0
1355,126,127,126,126,128,127,129,129,0
1360,129,128,125,126,126,127,128,129,0
1363,126,127,127,128,127,128,128,127,0
1366,131,127,126,126,128,127,127,128,0
1369,126,127,129,126,128,127,129,128,0
1372,123,128,124,128,128,128,128,128,0
1374,126,127,128,126,128,126,128,125,0
1377,132,129,126,129,128,126,127,125,0
1380,127,128,128,129,124,129,131,130,0
1382,126,127,125,125,129,128,129,128,0
1385,130,128,127,126,128,127,128,128,0
1387,129,127,127,127,129,129,128,126,0
1390,121,127,128,127,128,128,129,129,0
1394,130,128,126,127,127,127,129,128,0
1396,132,127,126,126,126,128,128,128,0
1399,126,126,126,127,127,127,128,126,0
1403,123,128,128,129,126,126,128,127,0
1406,125,128,127,127,128,128,128,128,0
1409,134,128,128,127,128,128,127,127,0
1411,127,125,130,129,128,128,128,128,0
1414,123,127,126,127,129,128,127,129,0
1417,127,128,127,127,127,128,128,128,0
1420,130,128,129,127,126,128,128,127,0
1424,120,130,127,129,127,126,127,126,0
1430,124,128,129,129,126,126,127,128,0
1436,132,129,127,124,129,127,126,128,0
1440,131,128,128,126,129,128,127,127,0
1443,132,127,128,127,126,129,128,127,0
1446,123,127,128,130,126,127,127,127,0
1449,130,128,128,127,128,128,128,128,0
1452,133,127,126,126,129,129,129,128,0
1454,129,128,128,126,128,127,127,128,0
1457,121,126,128,128,127,127,127,128,0
1461,127,127,126,126,129,127,128,129,0
1464,130,128,127,127,128,128,129,127,0
1467,121,127,129,129,125,126,127,126,0
1470,124,129,127,128,127,126,127,127,0
1473,127,128,126,128,129,128,128,128,0
1476,134,129,128,127,129,128,126,128,0
1480,132,128,128,128,129,128,129,128,0
1483,127,126,127,126,129,128,127,129,0
1487,127,128,126,127,128,128,128,129,0
1490,132,128,126,128,128,128,127,128,0
1493,120,127,128,128,129,128,127,127,0
1495,126,125,127,127,127,128,128,128,0
1501,127,127,128,127,126,129,126,128,0
1505,131,128,129,129,129,127,128,128,0
1508,125,127,128,126,127,128,128,127,0
1511,125,129,126,129,128,126,127,126,0
1514,124,128,128,130,125,129,128,128,0
1518,130,128,127,128,129,128,129,128,0
1522,130,128,126,125,128,128,128,128,0
1526,128,126,128,127,125,128,128,127,0
1529,124,127,127,129,126,127,128,129,0
1533,131,129,126,126,128,128,128,129,0
1540,131,127,127,127,127,129,127,128,0
1543,123,128,130,127,127,127,128,128,0
1547,131,128,128,127,127,128,125,128,0
1550,130,129,126,128,128,128,126,127,0
1553,127,128,127,127,127,127,127,128,0
1556,124,127,128,128,128,127,127,127,0
1560,123,128,127,130,127,126,127,126,0
1563,124,127,126,128,128,128,127,128,0
1566,130,127,128,128,129,128,129,128,0
1569,117,127,126,130,126,126,127,126,0
1572,124,128,127,130,126,127,126,128,0
1578,130,129,130,125,129,128,128,128,0
1582,131,128,127,126,126,128,126,128,0
1585,128,126,127,128,129,128,127,128,0
1589,120,124,128,126,129,128,126,129,0
1593,130,128,126,127,128,128,127,128,0
1596,134,127,129,127,127,128,127,127,0
1600,124,126,127,127,127,127,127,128,0
1604,119,128,128,130,127,126,127,126,0
1607,126,127,128,127,128,128,128,128,0
1610,131,128,126,126,127,128,128,128,0
1615,122,128,127,127,130,128,128,128,0
1618,122,129,127,128,127,126,128,126,0
1621,123,129,128,126,128,128,127,128,0
1624,131,128,128,126,128,128,130,128,0
1628,124,126,128,127,128,128,131,126,0
1631,123,127,131,129,126,127,127,127,0
1634,129,129,126,127,129,128,127,128,0
1640,130,128,126,127,128,128,126,127,0
1645,127,125,129,128,126,128,131,126,0
1648,130,129,126,130,127,127,127,127,0
1652,123,129,127,125,128,128,127,128,0
1655,132,128,129,128,129,128,128,128,0
1658,128,127,126,129,124,127,127,127,0
1661,123,124,128,128,126,129,129,129,0
1665,131,127,127,128,130,128,127,128,0
1668,130,127,127,127,127,128,126,127,0
1672,129,129,127,128,126,127,128,128,0
1675,126,127,129,129,126,126,127,126,0
1679,125,128,128,129,125,128,128,130,0
1682,133,129,126,128,129,128,128,128,0
1685,128,128,127,128,127,127,128,127,0
1690,131,126,127,125,127,128,128,129,0
1693,130,128,127,128,129,128,128,128,0
1696,128,128,127,126,129,128,129,128,0
1700,121,127,128,126,128,126,127,126,0
1703,126,127,128,129,126,127,127,126,0
1706,126,127,128,127,128,128,128,128,0
1710,134,129,127,125,129,129,129,129,0
1717,129,127,128,128,124,130,128,126,0
1721,123,128,128,127,126,126,129,126,0
1724,125,128,127,126,129,130,131,129,0
1727,132,128,129,126,129,128,128,128,0
1730,129,128,125,125,128,128,127,127,0
1734,128,126,126,127,129,128,126,128,0
1738,127,127,126,128,128,128,127,128,0
1745,129,128,131,128,128,127,127,125,0
1741,131,127,128,126,127,128,128,128,0
1751,122,128,128,129,126,126,127,126,0
1755,123,127,128,129,129,128,127,128,0
1758,129,129,128,127,128,128,126,128,0
1761,129,125,128,130,129,128,129,127,0
1765,126,125,128,128,127,127,130,127,0
1768,119,128,125,127,128,127,128,128,0
1771,129,129,128,127,127,128,128,128,0
1774,125,128,126,127,127,126,127,126,0
1777,124,128,128,130,126,126,127,126,0
1781,125,127,129,126,128,129,128,128,0
1784,131,128,127,128,128,128,127,127,0
1787,130,128,130,129,129,128,127,128,0
1791,123,125,128,128,124,128,127,127,0
1794,125,127,128,127,125,127,125,128,0
1797,130,128,127,128,128,127,128,128,0
1800,128,127,125,128,128,127,128,128,0
1803,121,127,128,128,126,127,128,124,0
1807,131,127,127,129,126,125,127,127,0
1812,131,128,128,127,127,128,129,128,0
1814,129,128,128,125,127,128,127,128,0
1817,126,125,127,129,126,127,128,128,0
1822,125,126,128,130,123,128,129,129,0
1825,130,128,130,127,128,127,128,129,0
1829,128,128,125,125,127,128,127,127,0
1832,127,126,127,128,123,127,127,126,0
1836,125,128,128,129,127,126,127,126,0
1839,126,127,126,129,129,128,128,128,0
1842,131,127,128,127,129,128,128,128,0
1847,127,126,126,127,127,128,131,127,0
1851,122,128,126,128,127,128,127,127,0
1859,132,128,127,127,128,128,127,128,0
1862,133,129,127,128,129,128,127,128,0
1868,131,128,130,128,126,128,130,128,0
1871,124,126,127,128,129,128,128,128,0
1874,126,127,127,127,129,128,129,129,0
1879,131,128,127,128,128,128,127,128,0
1882,128,128,128,129,127,126,127,125,0
1886,124,128,127,129,127,127,128,127,0
1890,124,129,127,126,128,128,127,127,0
1893,136,129,127,127,128,128,128,128,0
1896,135,125,130,126,127,128,128,128,0
1900,127,126,128,127,128,128,129,128,0
1903,123,127,129,128,130,129,128,129,0
1906,128,128,126,125,130,128,128,128,0
1910,128,126,126,128,129,129,128,127,0
1913,129,127,126,127,128,128,127,128,0
1916,131,127,127,126,129,127,128,128,0
1919,134,127,128,128,129,128,127,126,0
1923,128,128,127,129,127,127,128,125,0
1926,129,129,126,129,128,127,128,127,0
1929,124,128,127,127,130,128,128,129,0
1932,132,129,126,127,129,128,128,129,0
1935,132,128,128,127,128,128,127,127,0
1939,124,125,129,128,127,128,126,127,0
1942,127,126,128,126,128,128,126,128,0
1945,127,128,129,127,128,128,127,127,0
1950,130,127,127,126,129,128,127,128,0
1953,123,127,127,130,126,126,127,127,0
1957,123,128,128,129,124,128,128,129,0
1964,133,129,127,127,130,128,129,129,0
1968,127,127,127,126,127,127,129,128,0
1971,125,127,126,128,128,128,129,127,0
1974,131,127,131,129,129,128,128,127,0
1978,132,129,128,129,129,128,128,129,0
1981,126,128,126,126,129,127,128,127,0
1984,120,128,127,129,127,126,126,126,0
1987,124,128,128,129,127,126,127,129,0
1991,132,128,127,126,129,128,129,129,0
1994,131,128,127,128,127,128,127,128,0
1997,130,125,129,127,126,128,126,128,0
2000,124,127,127,126,129,128,128,128,0
2004,130,128,130,127,126,127,127,128,0
2007,131,129,126,128,128,128,127,127,0
2010,129,125,129,130,126,126,128,126,0
2013,126,127,128,129,127,127,128,128,0
2016,130,128,129,128,128,128,126,128,0
2020,133,128,127,128,130,128,127,128,0
2023,120,127,127,128,124,128,129,128,0
2026,121,126,125,127,129,128,128,129,0
2030,128,127,127,127,128,127,127,128,0
2034,130,128,129,128,126,128,127,128,0
2038,124,127,128,130,126,126,127,127,0
2040,122,128,129,129,126,126,128,128,0
2045,131,128,126,128,129,128,128,129,0
2048,129,127,126,126,129,128,129,128,0
2052,127,126,126,127,126,128,128,128,0
2057,125,126,127,128,129,128,127,128,0
2060,128,127,127,127,128,128,127,127,0
2066,127,128,127,128,129,128,128,129,0
2071,126,128,128,129,126,126,127,126,0
2074,124,127,127,130,127,126,127,125,0
2077,130,128,127,128,128,128,127,128,0
2081,130,127,127,127,129,127,129,128,0
2084,129,126,126,126,129,128,130,128,0
2087,126,127,127,127,127,127,128,129,0
2090,127,128,127,127,128,127,129,129,0
2094,129,128,127,127,127,128,126,128,0
2097,129,126,129,130,126,126,127,126,0
2100,123,128,130,130,126,127,127,128,0
2104,130,128,128,127,128,128,127,128,0
2107,133,129,128,127,128,128,126,128,0
2111,132,128,129,126,125,127,127,127,0
2114,126,124,130,127,128,127,127,128,0
2117,127,128,126,128,129,128,128,128,0
2121,130,129,126,129,128,128,128,128,0
2124,132,124,129,130,126,126,127,126,0
2128,123,129,127,129,127,126,128,126,0
2132,121,127,127,126,129,128,128,128,0
2135,132,128,128,126,129,128,127,128,0
2139,132,128,129,127,127,127,126,127,0
2144,131,127,127,128,125,129,128,127,0
2147,125,127,128,126,129,128,128,129,0
2151,131,129,126,127,128,128,128,128,0
2155,131,127,128,128,125,127,127,127,0
2158,127,127,128,128,125,126,127,125,0
2161,124,127,127,129,126,127,127,127,0
2165,125,128,126,126,129,128,129,129,0
2170,130,128,126,127,127,128,127,128,0
2175,127,127,129,127,126,127,128,126,0
2180,124,127,127,129,126,126,128,127,0
2185,135,129,127,126,129,128,129,129,0
2188,130,127,126,127,127,128,128,128,0
2191,132,128,130,126,126,127,127,127,0
2194,124,128,127,130,126,128,128,128,0
2197,130,128,127,127,127,128,126,128,0
2200,132,127,129,127,128,128,126,128,0
2203,127,126,128,127,129,126,127,125,0
2207,123,127,128,129,126,127,127,128,0
2210,131,128,127,127,128,128,128,128,0
2213,129,127,127,128,127,128,127,127,0
2217,127,128,133,126,125,128,127,128,0
2221,126,128,128,128,127,129,127,128,0
2224,129,127,128,127,129,127,127,128,0
2226,130,128,126,128,125,127,127,127,0
2229,120,128,126,130,126,126,128,126,0
2232,122,129,127,129,127,126,126,128,0
2235,131,128,128,127,129,128,128,129,0
2238,135,128,126,126,128,128,129,128,0
2241,123,126,127,126,129,128,128,129,0
2244,115,126,129,128,126,127,127,129,0
2247,130,128,130,126,129,128,128,128,0
2250,131,128,127,126,125,128,129,127,0
2253,123,128,128,128,126,127,127,126,0
2256,122,126,132,130,127,126,127,128,0
2259,131,128,126,125,129,128,128,128,0
2262,131,128,126,125,129,128,128,127,0
2264,131,127,129,128,129,128,129,128,0
2269,122,125,127,125,127,128,127,128,0
2272,130,129,127,127,129,128,129,129,0
2276,132,129,126,127,129,128,129,128,0
2279,126,128,129,129,126,126,127,126,0
2282,123,128,127,130,127,126,127,126,0
2285,124,127,129,126,128,128,127,128,0
2288,133,128,128,126,129,128,127,127,0
2292,127,127,130,126,127,127,127,127,0
2295,126,127,128,127,128,129,126,128,0
2298,129,128,127,127,129,128,128,126,0
2301,123,128,130,127,128,128,127,128,0
2303,126,127,126,126,127,127,127,128,0
2307,123,128,126,130,126,126,127,126,0
2311,123,129,128,130,126,128,127,128,0
2315,134,129,128,128,129,128,129,129,0
2319,127,127,127,125,127,128,128,128,0
2322,127,126,128,129,126,126,127,127,0
2325,122,128,127,129,125,128,128,128,0
2329,132,128,125,127,128,127,126,127,0
2333,133,127,131,128,124,127,127,128,0
2336,126,127,126,127,127,127,127,127,0
2340,128,128,128,128,128,128,127,128,0
2342,131,129,128,126,129,127,128,128,0
2346,128,127,130,130,125,127,127,126,0
2349,124,128,128,129,127,127,127,125,0
2354,125,127,129,129,129,129,128,129,0
2357,132,128,127,128,129,128,129,128,0
2361,130,128,126,127,128,128,127,127,0
2364,130,125,130,129,126,127,126,128,0
2368,125,127,127,128,127,127,127,128,0
2374,131,128,127,127,129,128,129,129,0
2380,130,127,128,128,128,128,127,128,0
2382,129,128,128,130,128,126,127,125,0
2386,129,128,127,129,128,127,127,128,0
2389,130,128,130,127,130,128,128,128,0
2392,129,128,126,126,128,128,129,128,0
2395,127,126,129,128,124,128,128,127,0
2399,127,126,129,129,128,128,128,129,0
2402,127,128,127,128,126,128,128,129,0
2405,127,128,127,128,125,129,129,126,0
2410,129,129,127,130,128,126,128,125,0
2413,126,127,128,128,128,128,128,129,0
2416,131,127,127,125,130,128,127,128,0
2419,130,128,126,126,128,128,128,129,0
2422,124,127,128,127,126,129,129,128,0
2425,123,127,126,127,127,128,128,129,0
2429,130,129,129,128,127,128,127,128,0
2434,130,128,128,127,128,128,126,127,0
2436,124,127,128,129,127,126,127,125,0
2441,122,127,128,129,126,126,127,128,0
2444,129,129,127,127,128,128,126,128,0
2447,129,128,126,126,127,128,128,127,0
2450,130,127,130,127,128,127,128,128,0
2453,118,126,126,127,129,128,127,127,0
2457,130,128,127,126,129,128,127,128,0
2460,128,128,128,129,129,128,128,128,0
2463,124,127,127,126,125,128,128,128,0
2467,120,128,126,130,127,127,129,126,0
2471,124,128,128,128,126,126,127,129,0
2476,132,128,126,127,130,128,129,129,0
2480,125,127,127,127,128,128,128,126,0
2483,130,127,128,128,129,128,128,129,0
2491,126,127,126,127,128,128,126,128,0
2495,129,129,128,126,129,128,128,127,0
2499,128,127,128,128,128,128,129,126,0
2502,122,127,128,129,127,126,127,126,0
2505,124,128,127,128,129,129,127,128,0
2509,133,128,128,127,126,128,128,128,0
2512,130,129,121,126,129,128,129,125,0
2515,118,127,127,126,127,126,127,126,0
2519,122,128,128,126,129,128,126,128,0
2522,131,128,127,127,129,128,128,129,0
2525,128,127,127,126,125,128,127,127,0
2529,127,127,127,128,122,128,127,129,0
2532,124,128,127,127,128,128,127,128,0
2535,131,129,128,126,129,127,128,128,0
2538,128,127,129,127,125,128,127,127,0
2541,129,126,129,127,128,127,128,128,0
2546,128,125,129,128,129,128,128,129,0
2549,124,129,125,127,126,128,127,127,0
2551,130,127,129,129,127,127,127,125,0
2555,128,128,128,129,127,126,127,125,0
2558,124,127,128,128,128,128,128,129,0
2561,133,128,127,128,129,128,127,128,0
2564,129,127,128,128,127,128,127,127,0
2568,125,127,128,128,127,128,126,127,0
2572,127,128,130,127,128,128,127,127,0
2574,132,129,130,128,127,128,126,128,0
2578,125,127,129,128,128,127,127,127,0
2586,119,127,129,131,127,126,127,126,0
2591,122,128,130,126,128,128,129,129,0
2594,130,129,126,126,129,128,127,128,0
2598,130,127,126,126,127,128,128,129,0
2601,129,127,129,127,127,129,129,126,0
2604,124,126,126,126,127,128,128,129,0
2607,132,129,128,128,128,128,127,127,0
2610,125,127,128,127,128,128,128,128,0
2613,123,127,127,128,128,127,127,127,0
2617,122,128,127,128,126,126,127,126,0
2620,127,128,128,127,128,128,127,128,0
2623,133,128,128,128,129,128,129,127,0
2625,128,126,128,128,127,128,128,128,0
2629,124,127,126,126,128,128,129,129,0
2633,130,129,125,127,127,128,128,128,0
2636,131,127,128,128,129,128,127,126,0
2640,128,129,128,130,128,128,127,125,0
2643,125,128,125,129,124,128,126,128,0
2646,129,128,127,125,128,128,127,128,0
2649,132,128,127,125,128,128,127,128,0
2653,128,127,126,125,127,128,128,127,0
2657,126,127,128,126,127,127,129,129,0
2660,132,129,128,128,128,128,126,128,0
2663,130,128,127,128,129,128,127,127,0
2665,130,127,129,126,129,127,127,128,0
2668,126,124,129,129,127,126,127,126,0
2672,124,129,128,129,126,127,126,128,0
2676,132,129,127,126,129,129,129,128,0
2680,128,126,126,128,127,128,127,127,0
2687,130,125,130,128,127,128,127,129,0
2690,131,128,127,127,128,127,127,127,0
2692,130,128,129,128,127,128,126,127,0
2696,128,126,126,128,128,127,128,126,0
2700,126,128,128,129,126,126,127,126,0
2707,134,128,126,126,129,128,127,128,0
2703,125,128,128,126,129,128,129,129,0
2710,124,126,127,128,127,127,128,127,0
2713,122,128,128,128,126,126,128,126,0
2717,122,128,127,128,129,129,128,129,0
2720,131,128,127,128,129,127,126,128,0
2724,127,127,126,125,128,128,128,128,0
2727,118,125,130,129,126,126,127,126,0
2730,123,126,130,130,129,128,127,128,0
2733,131,129,121,123,129,129,129,129,0
2736,132,128,128,127,125,129,128,127,0
2740,125,126,130,128,125,128,127,127,0
2743,126,127,126,127,126,127,127,128,0
2747,132,128,128,128,125,128,127,128,0
2750,129,128,129,129,128,128,128,127,0
2753,122,127,128,126,128,127,126,127,0
2756,127,128,127,128,127,128,127,127,0
2759,129,128,129,127,128,128,127,128,0
2762,131,128,129,130,128,127,128,125,0
2766,129,128,128,130,127,126,128,128,0
2771,121,127,128,127,129,128,127,128,0
2773,130,129,129,128,129,128,127,128,0
2777,130,127,127,127,129,129,129,129,0
2783,127,125,129,128,128,128,128,127,0
2787,125,126,123,125,127,127,128,128,0
2791,133,128,127,127,127,128,126,127,0
2794,129,127,127,128,127,127,127,126,0
2800,131,127,130,130,126,126,128,126,0
2806,122,128,129,130,126,126,127,127,0
2810,132,129,126,126,129,128,129,129,0
2813,129,128,127,127,129,127,128,126,0
2817,123,128,128,129,126,126,128,126,0
2820,125,128,127,128,126,128,127,128,0
2824,133,128,127,125,128,128,128,129,0
2828,131,128,128,127,129,128,128,128,0
2831,124,127,127,128,125,128,127,128,0
2834,127,128,128,127,128,128,126,127,0
2837,130,129,128,128,128,128,126,127,0
2840,127,128,130,127,128,128,127,127,0
2844,129,127,127,129,127,126,127,126,0
2847,122,128,127,129,127,129,127,128,0
2850,130,128,127,125,129,128,127,128,0
2853,130,128,125,127,129,128,128,128,0
2856,125,127,128,129,128,126,126,128,0
2860,126,126,127,127,125,128,127,128,0
2865,130,128,127,128,127,127,127,128,0
2869,129,128,131,129,126,128,127,128,0
2873,128,128,128,126,125,126,128,125,0
2876,124,127,127,129,127,126,128,126,0
2880,125,127,127,128,129,128,127,128,0
2883,132,128,127,125,128,128,127,128,0
2886,128,127,128,127,125,130,127,127,0
2890,127,125,129,127,126,128,126,128,0
2898,127,128,128,127,127,128,127,128,0
2902,130,129,128,127,128,128,126,128,0
2906,128,127,128,126,128,128,128,128,0
2909,129,127,128,126,129,127,127,126,0
2912,127,128,128,129,126,126,127,126,0
2916,126,128,128,129,127,126,128,127,0
2919,125,127,128,125,128,128,128,128,0
2922,130,127,127,127,129,128,127,128,0
2925,131,129,130,128,129,127,127,128,0
2928,131,129,127,126,129,128,128,128,0
2932,133,128,128,128,127,127,128,127,0
2936,122,126,130,129,126,126,127,126,0
2940,125,128,129,127,128,128,126,128,0
2942,133,128,127,128,128,128,128,129,0
2945,128,125,129,129,125,127,126,127,0
2949,128,127,127,125,127,128,127,128,0
2953,128,128,129,128,128,128,127,128,0
2956,130,129,126,128,128,128,129,129,0
2960,125,127,126,126,129,127,127,127,0
2963,126,126,128,129,127,127,128,125,0
2965,125,127,129,128,129,128,127,128,0
2968,130,128,127,126,128,129,129,128,0
2972,128,127,126,128,126,128,129,128,0
2975,122,127,131,129,125,126,127,126,0
2979,123,128,128,126,129,128,127,128,0
2982,135,129,128,127,127,127,127,128,0
2986,133,128,125,128,129,128,128,128,0
2990,127,127,127,126,128,128,129,127,0
2995,129,128,128,128,127,127,126,128,0
2999,129,129,128,129,129,128,127,128,0
3004,129,128,128,128,126,129,128,128,0
3008,128,127,128,128,128,128,127,128,0
3011,129,125,128,129,127,126,128,126,0
3013,127,128,128,129,127,126,128,127,0
3016,125,128,128,129,126,126,129,126,0
3019,126,128,128,128,127,127,127,128,0
3022,130,125,127,128,129,128,128,128,0
3024,135,128,130,124,129,128,127,129,0
3027,129,128,126,127,128,129,131,128,0
3031,128,126,127,127,128,128,130,128,0
3034,130,127,129,127,127,128,128,129,0
3037,128,129,124,128,127,127,126,128,0
3040,127,128,127,128,129,128,127,127,0
3043,128,128,128,128,128,127,127,125,0
3046,124,127,128,129,126,126,127,127,0
3050,133,129,128,126,128,128,127,129,0
3053,131,128,127,126,129,128,128,129,0
3057,122,126,127,127,126,126,127,127,0
3061,120,128,127,128,128,128,128,128,0
3065,130,128,126,126,129,128,128,129,0
3068,132,128,127,127,125,126,126,127,0
3071,131,127,130,131,126,126,127,125,0
3073,121,127,128,130,126,127,127,128,0
3076,132,128,126,127,128,128,127,127,0
3080,135,128,128,128,129,127,127,128,0
3084,122,126,130,126,128,127,127,127,0
3088,122,126,127,128,126,128,126,128,0
3092,127,129,127,126,129,128,127,129,0
3105,131,128,126,128,128,128,128,128,0
3111,123,126,127,127,128,126,128,125,0
3122,128,128,129,130,126,126,127,126,0
3127,123,128,120,126,129,128,127,128,0
3131,131,128,124,127,128,128,126,128,0
3135,128,126,129,128,128,128,127,127,0
3139,121,127,131,126,128,128,127,128,0
3143,126,128,127,128,129,128,128,129,0
3146,126,128,126,128,129,127,127,128,0
3149,128,127,128,126,128,127,127,126,0
3153,127,127,127,127,125,128,128,128,0
3156,129,127,128,128,124,127,127,128,0
3160,130,127,127,129,127,127,127,126,0
3163,123,129,127,129,128,126,128,123,0
3167,129,128,127,129,127,126,126,128,0
3170,129,128,128,125,129,128,127,128,0
3172,131,128,127,127,131,128,127,128,0
3175,128,127,126,126,127,128,129,126,0
3180,115,127,128,128,128,127,125,127,0
3183,128,127,129,126,128,127,127,128,0
3185,130,128,126,127,130,128,129,128,0
3190,121,128,126,128,125,127,127,125,0
3192,127,129,127,129,127,126,128,127,0
3197,124,128,128,128,129,128,128,129,0
3200,131,129,126,126,129,128,131,129,0
3203,130,127,127,125,128,128,128,128,0
3205,127,128,129,125,126,127,127,129,0
3209,131,127,127,127,126,127,126,128,0
3212,132,129,131,127,128,128,128,128,0
3214,127,128,126,126,129,128,126,127,0
3218,131,128,129,129,127,127,128,127,0
3220,123,128,128,129,126,126,127,129,0
3228,134,129,128,128,128,128,127,127,0
3232,129,127,128,128,126,127,128,128,0
3235,128,127,128,127,126,127,127,127,0
3240,121,127,129,129,129,128,127,128,0
3244,131,128,129,127,129,129,128,129,0
3249,134,128,127,126,124,127,128,128,0
3253,126,127,127,127,127,128,127,124,0
3256,127,128,129,129,126,127,128,129,0
3259,128,129,128,127,127,128,128,129,0
3262,130,129,124,127,127,128,128,129,0
3265,125,126,126,127,126,127,127,127,0
3268,127,127,130,128,128,128,127,128,0
3273,129,128,126,126,129,128,128,128,0
3276,123,127,126,127,127,128,129,128,0
3279,120,127,127,127,128,128,128,128,0
3282,127,126,128,128,127,128,127,128,0
3285,127,129,127,127,127,128,129,128,0
3288,125,128,127,130,127,126,127,126,0
3291,127,128,127,129,128,127,129,126,0
3294,122,128,127,128,122,130,130,129,0
3297,132,128,126,127,128,128,128,128,0
3301,130,128,125,125,128,128,129,129,0
3305,130,127,129,127,126,127,128,128,0
3308,128,124,127,124,129,129,126,128,0
3310,129,129,127,126,129,127,128,128,0
3314,131,128,128,128,128,128,128,128,0
3317,129,126,128,128,128,127,127,128,0
3319,120,128,128,129,126,126,127,126,0
3322,125,128,129,128,128,128,128,128,0
3325,132,127,126,126,129,128,130,128,0
3328,128,127,128,128,125,127,128,127,0
3331,125,128,128,129,126,126,127,127,0
3335,122,129,127,127,128,128,127,128,0
3339,133,128,128,125,127,128,127,128,0
3344,128,127,127,127,127,128,128,128,0
3351,127,128,128,127,127,127,126,127,0
3354,131,127,127,127,127,127,127,128,0
3357,131,129,131,129,128,128,127,128,0
3360,123,129,124,125,128,127,129,127,0
3364,123,126,127,128,127,127,128,128,0
3367,127,127,129,128,128,128,126,128,0
3370,129,129,129,128,125,128,128,125,0
3373,123,128,128,131,127,127,127,126,0
3375,124,128,129,126,127,127,127,126,0
3378,126,128,127,128,129,129,128,128,0
3381,135,128,130,126,129,128,129,128,0
3384,130,126,126,127,127,128,128,128,0
3387,128,128,127,125,125,128,129,128,0
3389,127,128,125,127,127,127,126,128,0
3392,131,128,128,128,127,128,127,128,0
3395,126,127,129,126,130,126,128,127,0
3400,123,128,127,129,126,127,127,127,0
3411,125,128,128,129,127,127,129,128,0
3415,133,129,130,128,129,128,127,127,0
3417,130,128,128,128,129,128,127,127,0
3420,127,127,126,127,128,128,128,128,0
3423,127,127,127,126,129,127,128,128,0
3426,131,128,128,128,125,128,127,127,0
3429,127,128,129,126,127,127,128,127,0
3432,123,127,128,128,128,127,127,127,0
3436,125,127,126,128,127,128,126,129,0
3440,129,129,129,128,128,128,127,127,0
3444,128,129,121,126,129,128,128,127,0
3447,120,126,126,129,127,126,127,125,0
3450,129,127,125,129,126,127,128,129,0
3453,132,129,128,127,128,128,128,128,0
3459,130,127,126,128,127,128,130,128,0
3462,125,127,125,126,126,130,129,128,0
3465,125,126,127,125,129,127,129,129,0
3469,132,129,127,126,127,127,127,129,0
3472,128,128,127,128,126,128,128,127,0
3475,124,128,128,127,125,128,127,128,0
3478,127,128,128,130,126,126,128,126,0
3481,126,128,129,130,127,126,127,126,0
3484,126,127,128,128,130,129,128,128,0
3489,128,128,126,128,130,128,129,128,0
3492,119,126,129,128,129,127,129,129,0
3494,132,129,126,126,128,128,126,128,0
3497,129,129,129,127,127,128,127,127,0
3510,130,125,127,130,126,126,127,126,0
3514,122,127,128,129,126,127,128,127,0
3518,126,128,127,128,129,128,127,128,0
3521,133,129,127,126,129,128,127,127,0
3524,128,127,130,128,130,128,129,128,0
3527,122,127,128,127,125,128,127,128,0
3531,129,128,128,127,127,128,127,129,0
3534,131,128,127,127,126,128,126,127,0
3547,129,127,128,130,127,126,127,126,0
3551,122,128,128,130,126,127,127,127,0
3554,128,128,126,126,131,128,129,129,0
3558,131,128,126,125,129,128,127,128,0
3561,128,127,129,127,125,128,127,128,0
3564,128,124,129,128,125,127,126,127,0
3568,133,129,128,128,128,128,126,128,0
3571,135,129,129,128,127,127,127,127,0
3575,131,127,130,128,128,128,128,128,0
3583,129,127,127,127,128,128,127,128,0
3587,130,128,125,128,126,127,127,128,0
3591,131,129,128,127,127,127,128,128,0
3594,119,128,127,129,126,125,127,126,0
3597,126,128,127,130,127,127,127,126,0
3600,125,129,128,129,125,128,128,128,0
3603,135,128,126,126,129,128,128,128,0
3605,131,127,128,128,127,128,126,126,0
3610,117,125,127,128,125,127,127,127,0
3613,120,128,126,127,128,128,128,128,0
3620,132,129,127,127,127,128,126,128,0
3624,128,126,129,127,125,128,127,127,0
3627,119,127,127,128,127,128,128,128,0
3631,130,127,130,129,128,128,128,128,0
3634,131,128,124,127,129,128,128,128,0
3637,129,128,128,127,126,128,128,126,0
3640,124,128,129,129,126,126,126,126,0
3643,124,128,127,129,125,128,129,128,0
3656,130,128,127,128,128,128,127,127,0
3659,128,126,129,128,131,128,127,126,0
3663,122,127,129,128,127,126,127,126,0
3666,124,127,127,128,128,128,127,127,0
3670,134,129,128,127,129,127,127,128,0
3672,130,126,127,124,127,127,126,128,0
3676,128,126,127,128,125,127,128,127,0
3681,121,126,126,125,129,128,129,129,0
3684,130,128,126,126,129,128,128,129,0
3687,130,127,127,127,126,128,127,128,0
3694,128,127,130,128,126,128,128,128,0
3716,118,127,128,126,130,128,127,128,0
3721,130,129,126,127,129,128,129,128,0
3724,126,128,127,127,125,128,126,127,0
3729,129,126,128,127,127,127,128,125,0
3733,127,129,127,129,127,125,127,129,0
3738,131,128,127,126,129,128,127,128,0
3742,130,127,126,127,127,128,127,127,0
3746,130,125,128,129,126,126,127,126,0
3749,124,128,127,129,125,128,128,129,0
3752,132,128,127,127,127,128,128,128,0
3756,134,127,128,127,127,128,127,127,0
3759,132,125,129,129,129,128,129,129,0
3762,119,128,127,130,127,127,127,129,0
3766,129,129,128,127,129,127,126,128,0
3773,133,128,126,127,129,128,127,127,0
3776,126,127,126,128,129,127,127,128,0
3780,127,127,129,128,125,127,127,128,0
3783,130,128,129,128,129,128,127,127,0
3785,127,127,129,127,128,127,128,129,0
3789,124,125,129,128,127,128,128,127,0
3792,124,127,127,126,128,128,127,128,0
3796,130,128,127,128,129,128,128,127,0
3799,131,128,128,128,125,128,128,125,0
3803,131,129,126,130,128,126,128,125,0
3806,128,128,128,128,125,127,128,128,0
3809,130,128,126,125,129,128,128,129,0
3812,130,127,127,127,128,128,130,128,0
3815,127,128,128,128,126,128,128,127,0
3819,120,127,131,129,126,126,128,126,0
3822,124,128,124,129,129,128,126,128,0
3825,131,128,127,126,128,127,126,128,0
3828,129,128,127,127,126,127,126,127,0
3832,126,126,127,127,127,127,127,128,0
3838,128,128,126,128,129,128,127,129,0
3844,130,128,128,127,129,128,128,129,0
3848,118,129,126,126,128,128,129,128,0
3851,127,125,129,130,126,126,127,126,0
3854,124,126,131,127,129,128,128,129,0
3857,131,128,126,126,127,128,128,129,0
3860,128,126,130,125,128,127,128,128,0
3863,123,127,127,128,124,128,128,128,0
3866,120,127,130,128,128,128,126,127,0
3869,125,128,124,125,128,127,127,128,0
3872,129,127,128,129,128,126,127,125,0
3875,125,128,129,130,127,126,126,126,0
3879,124,124,126,125,128,128,128,129,0
3882,133,129,126,127,128,128,128,128,0
3893,132,128,127,127,127,127,127,127,0
3897,127,126,130,129,127,129,129,128,0
3900,123,127,124,126,129,128,128,129,0
3903,128,128,127,127,128,127,129,129,0
3906,125,127,126,127,128,128,127,127,0
3911,124,127,128,130,126,126,128,126,0
3913,125,126,128,127,128,128,128,129,0
3917,128,129,125,127,128,129,127,128,0
3920,132,128,128,126,126,127,127,126,0
3924,125,126,131,129,127,126,128,127,0
3928,122,126,126,127,132,129,128,128,0
3937,131,128,126,127,128,128,128,128,0
3941,130,128,126,124,127,128,128,127,0
3945,127,127,129,126,128,127,127,127,0
3949,128,126,131,128,128,128,127,129,0
3955,128,129,125,128,129,128,128,128,0
3958,129,128,127,128,129,128,129,127,0
3963,130,127,128,126,128,128,127,128,0
3968,119,126,128,129,129,128,127,128,0
3974,130,128,130,126,127,128,127,128,0
3979,131,128,127,128,125,126,128,125,0
3982,131,128,128,130,127,126,128,124,0
3986,126,128,128,128,128,128,127,128,0
3989,132,128,127,126,128,129,127,128,0
3992,129,127,127,128,129,128,128,128,0
3995,122,125,128,125,126,127,129,129,0
3998,121,127,127,128,126,128,128,128,0
4001,131,128,128,128,128,128,126,128,0
4005,127,128,127,126,128,128,128,128,0
4014,117,128,129,130,126,126,127,126,0
4017,124,127,126,129,126,127,127,127,0
4020,131,127,128,128,129,128,128,129,0
4023,131,128,126,127,127,128,127,128,0
4027,126,126,130,129,124,128,127,126,0
4031,117,128,124,128,125,128,127,128,0
4034,132,128,128,127,128,128,127,128,0
4037,129,128,128,126,128,128,128,128,0
4040,123,127,127,129,126,126,127,125,0
4049,123,128,127,128,126,126,127,126,0
4053,122,128,130,127,128,128,127,128,0
4056,133,128,128,126,128,128,126,128,0
4059,131,128,127,128,130,128,129,128,0
4063,124,126,128,128,127,127,127,127,0
4066,130,127,129,129,127,128,127,128,0
4070,130,128,128,127,129,128,128,128,0
4073,131,127,129,128,124,127,128,128,0
4076,125,125,128,128,127,127,128,128,0
4080,127,128,126,128,127,128,127,128,0
4086,129,128,127,128,128,128,128,127,0
4090,125,127,127,129,126,126,128,125,0
4093,128,128,126,129,127,126,127,127,0
4096,123,126,128,126,128,128,128,128,0
4100,131,128,126,125,128,128,127,128,0
4103,128,128,129,128,125,128,127,127,0
4106,125,126,133,129,125,128,127,128,0
4109,127,128,125,125,130,127,127,129,0
4113,130,128,127,127,128,127,128,128,0
4123,127,129,127,127,128,127,127,127,0
4126,124,127,129,128,125,127,127,126,0
4130,124,128,125,129,128,128,127,128,0
4133,131,128,125,126,130,129,127,127,0
4137,132,129,127,128,130,128,127,128,0
4140,125,127,127,128,125,128,127,127,0
4143,126,128,128,127,128,128,126,127,0
4146,130,128,127,127,127,129,126,127,0
4150,130,127,128,126,128,128,129,127,0
4153,128,127,128,128,127,128,128,127,0
4167,122,129,128,129,125,126,127,127,0
4171,123,129,125,126,129,128,128,129,0
4175,131,128,128,127,126,128,131,127,0
4179,120,124,130,128,128,128,127,127,0
4182,130,127,127,128,129,127,128,129,0
4185,130,128,127,128,128,128,129,129,0
4188,131,127,128,128,127,126,127,126,0
4191,128,127,131,130,126,126,129,126,0
4194,123,127,125,127,128,128,128,129,0
4198,132,127,126,123,129,128,128,129,0
4201,132,128,126,126,127,128,129,128,0
4211,124,128,125,128,125,128,128,127,0
4215,127,129,125,127,128,127,128,128,0
4218,131,127,129,127,128,128,127,128,0
4221,132,127,130,127,127,128,128,128,0
4224,121,128,128,130,126,126,126,125,0
4227,124,128,130,129,125,128,126,128,0
4231,133,128,128,126,129,128,127,128,0
4234,130,128,127,128,128,129,127,128,0
4237,127,126,126,128,130,128,128,126,0
4241,121,129,128,129,126,126,127,128,0
4248,131,128,127,127,128,128,128,128,0
4252,132,127,129,127,128,128,129,128,0
4255,130,128,124,126,127,128,127,127,0
4259,126,126,128,127,127,128,128,129,0
4262,130,129,126,127,127,127,127,128,0
4265,134,127,128,127,127,128,127,127,0
4269,118,128,129,130,127,126,127,126,0
4272,126,128,129,127,127,126,128,127,0
4275,127,127,129,126,129,129,128,128,0
4286,135,129,127,127,128,128,128,128,0
4290,129,126,129,128,127,128,128,126,0
4294,124,127,128,128,127,128,127,128,0
4297,129,128,127,126,129,127,128,129,0
4301,131,128,126,128,127,128,128,128,0
4304,125,127,127,129,126,126,126,125,0
4307,125,128,127,128,127,126,127,128,0
4314,129,128,131,126,128,128,127,128,0
4317,130,129,125,128,129,128,129,128,0
4321,129,127,131,126,125,128,128,128,0
4325,128,127,129,126,126,127,126,127,0
4328,128,129,126,127,128,129,128,128,0
4332,130,129,128,129,128,128,127,128,0
4336,128,125,129,129,128,126,128,125,0
4340,129,129,125,129,126,127,126,126,0
4348,130,129,128,127,128,128,128,129,0
4352,129,127,130,126,128,128,128,128,0
4355,131,127,128,128,127,128,125,126,0
4358,125,127,129,126,128,130,128,127,0
4361,126,127,129,127,128,128,127,128,0
4365,130,127,130,129,128,127,126,128,0
4368,129,127,127,126,128,127,127,126,0
4371,125,129,127,128,126,126,128,126,0
4374,123,128,127,128,125,128,127,128,0
4377,134,127,127,128,129,128,128,129,0
4381,131,128,127,125,128,127,128,128,0
4384,126,128,129,128,131,128,127,127,0
4388,127,128,129,129,129,128,127,128,0
4391,129,127,128,127,129,127,128,128,0
4407,125,127,126,129,129,127,127,128,0
4411,132,126,127,127,127,126,128,125,0
4415,124,128,128,129,127,126,127,129,0
4418,133,128,127,127,128,128,127,127,0
4422,132,125,130,127,127,128,127,127,0
4425,128,128,130,129,129,126,127,127,0
4429,123,128,129,129,127,127,127,128,0
4432,130,129,126,127,128,128,126,128,0
4483,131,128,126,125,128,128,128,128,0
4491,129,127,129,128,127,128,130,127,0
4499,119,127,128,128,126,126,127,129,0
4506,131,128,127,127,128,128,127,127,0
4510,132,127,131,126,129,128,127,128,0
4555,126,126,127,126,129,128,129,128,0
4568,117,129,127,126,129,128,128,128,0
4573,132,128,125,127,128,128,128,128,0
4578,131,128,127,127,126,127,127,128,0
4583,127,129,126,127,128,127,128,124,0
4621,130,128,129,129,127,126,127,129,0
4631,131,126,125,126,128,128,126,127,0
4653,131,127,128,127,128,128,126,128,0
4688,127,124,129,129,127,127,127,126,0
4698,121,128,121,128,126,126,127,126,0
4707,123,128,130,128,128,127,126,128,0
4712,131,130,126,127,128,128,128,128,0
4716,126,125,132,128,130,128,127,127,0
4758,126,123,128,127,126,127,127,128,0
4768,130,131,124,127,128,128,127,129,0
4777,131,129,128,126,128,128,127,128,0
4785,124,126,129,130,127,126,127,125,0
4791,129,128,128,130,126,126,126,128,0
4796,133,128,132,127,128,128,127,129,0
4801,130,128,122,124,128,128,127,128,0
4807,130,128,127,127,126,128,127,128,0
4811,127,128,127,129,126,127,127,125,0
4816,130,128,126,127,128,128,129,129,0
4820,130,128,125,125,129,128,129,128,0
4825,125,125,129,129,129,128,127,127,0
4828,127,126,126,128,127,126,127,126,0
4832,126,128,126,127,128,128,126,128,0
4837,134,130,126,128,130,128,128,129,0
4842,128,125,128,127,127,127,128,126,0
4848,123,128,128,130,126,127,127,127,0
4852,124,127,127,128,128,128,128,128,0
4856,133,128,127,126,129,128,128,128,0
4861,130,126,127,127,128,128,127,128,0
4865,130,127,127,128,126,127,127,126,0
4869,123,126,131,128,129,127,126,128,0
4872,132,127,129,127,129,128,129,128,0
4875,127,126,127,128,124,128,127,127,0
4879,129,125,133,127,128,128,127,128,0
4883,128,131,124,127,128,128,127,128,0
4886,128,129,125,127,129,128,126,128,0
4889,128,128,127,127,128,128,127,127,0
4892,126,126,128,130,125,126,127,125,0
4896,131,129,124,126,128,128,127,128,0
4898,130,128,127,127,127,128,126,127,0
4902,129,128,128,129,128,128,127,128,0
4905,130,125,129,127,127,127,128,126,0
4909,122,128,128,130,126,126,127,129,0
4911,131,128,126,126,129,128,129,129,0
4914,130,128,125,126,126,129,126,127,0
4918,125,127,128,127,127,128,126,127,0
4923,123,126,127,127,127,128,129,129,0
4926,132,128,127,127,127,127,128,128,0
4930,131,127,127,127,129,126,127,126,0
4933,125,127,129,130,126,126,126,125,0
4940,124,128,125,129,125,128,127,128,0
4944,134,128,128,126,129,128,126,128,0
4948,130,128,129,128,128,128,128,128,0
4954,125,126,126,129,128,127,126,127,0
4958,127,126,129,126,129,129,128,129,0
4965,126,128,127,129,128,127,129,128,0
4970,129,127,130,127,125,128,127,129,0
4973,121,127,126,128,124,126,128,125,0
4977,129,128,128,129,127,126,126,128,0
4980,131,129,124,127,128,128,129,129,0
4983,131,128,127,128,131,128,129,128,0
4987,125,126,130,126,127,127,127,127,0
4990,127,127,121,123,129,128,130,128,0
4993,127,129,126,128,127,128,126,128,0
4996,132,128,130,128,127,128,126,127,0
4999,126,127,128,130,125,126,128,126,0
5023,127,128,127,129,127,127,128,126,0
5030,126,128,128,127,128,128,128,128,0
5037,132,128,126,127,129,128,127,128,0
5045,131,128,130,128,130,128,128,126,0
5049,122,129,126,128,126,126,127,127,0
5053,125,126,129,126,129,128,128,128,0
5057,131,127,126,130,129,128,128,128,0
5060,128,126,123,123,128,128,127,127,0
5063,125,124,133,129,129,128,129,129,0
5067,130,127,126,126,127,128,129,128,0
5070,131,128,127,128,126,127,126,128,0
5073,131,127,130,129,128,128,127,126,0
5076,118,126,129,129,126,127,127,126,0
5079,126,129,123,125,129,129,128,128,0
5082,132,128,127,128,128,128,129,128,0
5085,130,127,126,128,125,128,128,128,0
5089,126,125,129,128,125,127,127,126,0
5094,126,129,127,129,128,128,128,129,0
5098,130,127,130,128,128,128,128,128,0
5104,128,129,126,126,128,128,129,128,0
5107,127,126,128,129,126,126,127,126,0
5109,125,128,129,127,129,128,128,128,0
5113,131,128,126,127,127,127,127,127,0
5116,133,127,134,129,129,127,128,128,0
5119,128,129,125,127,127,127,126,128,0
5122,122,127,128,127,128,127,127,128,0
5125,130,127,124,127,129,128,128,128,0
5129,127,127,129,128,127,129,127,127,0
5132,123,127,129,128,125,126,128,125,0
5135,129,129,127,131,126,127,127,129,0
5139,134,129,126,125,128,128,127,127,0
5142,128,128,131,128,125,128,126,127,0
5145,127,126,128,127,126,127,127,126,0
5148,124,128,127,129,127,127,128,129,0
5159,132,129,126,127,128,128,128,129,0
5163,128,127,128,127,126,128,128,128,0
5167,127,126,126,128,129,128,129,126,0
5170,127,127,128,128,126,128,126,128,0
5173,135,129,127,126,130,128,128,129,0
5176,127,127,128,126,129,127,127,127,0
5180,128,127,130,129,127,127,128,126,0
5183,122,129,127,130,127,126,128,127,0
5186,128,128,127,128,129,128,128,127,0
5190,133,128,132,128,130,129,129,129,0
5193,127,126,126,125,129,128,129,129,0
5228,120,127,126,127,129,129,127,128,0
5244,132,129,128,128,128,128,127,128,0
5253,134,128,130,126,128,128,127,128,0
5279,125,127,129,127,127,127,128,126,0
5304,129,128,123,129,128,126,127,128,0
5312,132,128,125,126,129,128,128,128,0
5319,134,128,130,127,128,128,127,128,0
5327,126,126,127,128,124,127,128,129,0
5331,117,129,125,126,129,127,128,128,0
5335,131,129,130,128,126,128,127,128,0
5338,129,126,127,129,128,129,128,128,0
5342,126,127,128,128,128,127,128,128,0
5345,116,128,128,129,128,127,127,127,0
5348,123,129,131,130,126,126,128,126,0
5351,127,127,124,127,129,129,128,128,0
5354,131,124,128,126,128,128,126,127,0
5357,128,124,128,129,124,128,127,127,0
5361,129,127,130,125,129,127,126,128,0
5364,129,130,127,126,128,128,129,129,0
5367,123,126,126,127,128,128,128,126,0
5370,126,126,128,127,126,128,128,128,0
5373,128,129,128,128,128,127,126,128,0
5376,128,128,126,127,128,127,127,128,0
5378,123,127,127,126,127,126,126,124,0
5381,128,129,127,130,127,125,126,126,0
5384,120,128,130,128,129,128,127,128,0
5387,129,127,133,134,127,127,127,127,0
5389,121,128,115,122,129,128,131,128,0
5393,123,127,125,127,127,127,129,129,0
5395,122,128,126,124,129,128,128,129,0
5398,128,128,127,127,128,127,128,127,0
5401,129,127,129,128,127,128,128,126,0
5404,124,128,128,129,127,126,127,126,0
5407,123,129,128,128,129,128,128,129,0
5410,130,129,127,128,129,129,127,128,0
5413,126,128,130,127,127,128,127,127,0
5418,127,125,130,129,125,127,127,127,0
5423,128,127,126,125,129,127,127,129,0
5427,132,128,127,127,128,128,129,128,0
5431,129,126,127,127,125,127,127,127,0
5434,126,127,127,127,126,127,127,127,0
5437,127,127,127,128,128,128,127,128,0
5440,133,127,125,126,127,128,126,127,0
5443,126,126,128,126,125,126,127,124,0
5447,131,129,126,129,127,126,127,127,0
5450,123,127,126,127,129,129,128,129,0
5453,132,128,126,127,129,128,128,128,0
5456,130,127,127,127,128,127,127,127,0
5463,125,126,127,127,128,127,129,129,0
5460,127,126,129,128,128,128,127,128,0
5466,131,128,126,127,128,128,129,129,0
5470,132,128,126,128,126,128,130,126,0
5472,124,126,128,129,125,126,128,126,0
5475,124,128,128,128,127,128,128,129,0
5477,132,130,122,125,129,128,127,128,0
5480,130,127,127,125,128,128,129,128,0
5485,129,126,126,125,128,128,128,127,0
5488,129,128,126,126,127,128,128,128,0
5491,132,128,129,127,129,128,127,128,0
5494,130,127,128,128,127,129,128,127,0
5498,130,127,128,128,129,129,127,127,0
5502,123,127,127,130,125,127,128,127,0
5505,126,128,127,126,129,128,129,129,0
5508,131,128,130,128,127,127,127,127,0
5511,130,127,128,125,129,128,128,128,0
5514,125,125,127,128,128,128,127,127,0
5517,130,131,126,128,129,128,128,128,0
5522,127,128,127,128,129,129,128,126,0
5528,126,128,127,129,128,126,128,125,0
5532,128,129,126,129,124,129,128,128,0
5535,131,127,125,124,129,129,127,128,0
5538,130,129,127,127,129,128,128,128,0
5542,127,127,128,127,125,128,130,126,0
5545,118,126,127,128,126,127,129,129,0
5550,131,129,126,129,128,128,126,127,0
5553,130,128,129,127,127,128,126,127,0
5560,124,128,129,125,130,128,128,128,0
5564,126,125,128,129,127,126,127,127,0
5568,123,128,127,126,129,128,127,128,0
5571,130,129,127,128,129,128,129,129,0
5575,124,126,130,129,128,129,127,126,0
5579,124,127,129,130,127,126,127,126,0
5583,123,129,126,126,129,128,128,128,0
5586,132,128,126,125,128,127,129,129,0
5591,132,127,127,128,131,128,129,128,0
5594,118,127,127,130,127,126,127,127,0
5597,125,127,128,127,129,128,127,128,0
5600,131,129,127,127,127,128,127,128,0
5604,127,127,128,126,130,128,129,127,0
5606,125,126,129,128,125,127,128,127,0
5609,121,128,128,128,129,128,127,129,0
5612,131,129,128,126,129,127,128,128,0
5615,126,128,128,128,128,127,126,126,0
5620,124,127,127,128,129,127,128,128,0
5623,131,128,126,128,128,128,128,128,0
5625,134,128,126,127,127,128,128,128,0
5630,132,126,127,128,126,127,128,128,0
5633,123,127,132,130,127,125,127,124,0
5638,130,128,128,129,129,127,127,129,0
5643,131,131,125,124,129,128,127,128,0
5646,129,128,123,126,128,128,127,127,0
5650,124,124,129,129,127,127,128,126,0
5653,125,128,129,127,127,128,128,128,0
5657,133,128,130,127,129,128,127,128,0
5660,126,127,127,127,128,127,128,128,0
5663,128,125,132,129,126,127,128,127,0
5667,121,128,128,131,126,127,127,128,0
5671,132,128,128,128,128,128,127,128,0
5674,131,128,128,128,128,128,126,128,0
5677,125,127,127,125,128,127,127,128,0
5680,128,127,130,127,127,129,126,128,0
5683,134,130,123,127,128,128,128,128,0
5685,128,126,131,128,125,127,127,127,0
5688,121,126,127,131,125,126,128,126,0
5691,128,128,123,125,124,128,128,128,0
5695,132,128,127,128,128,128,127,129,0
5698,130,128,129,128,130,128,129,127,0
5701,129,125,129,128,130,126,127,128,0
5704,127,127,127,128,129,128,129,129,0
5707,130,129,127,127,126,128,127,128,0
5710,130,127,132,128,127,128,126,127,0
5713,129,128,128,128,126,127,128,127,0
5715,127,129,127,129,126,126,127,126,0
5719,128,126,133,127,129,128,127,128,0
5724,131,128,124,126,130,129,129,128,0
5728,126,126,127,126,128,128,129,127,0
5731,123,129,129,130,127,127,127,125,0
5733,131,128,126,129,131,128,128,129,0
5736,132,128,130,124,128,128,127,128,0
5739,131,129,125,126,126,128,130,127,0
5743,122,128,129,129,127,127,127,125,0
5748,131,128,128,126,130,129,128,129,0
5751,134,128,127,127,128,127,126,127,0
5754,131,126,127,126,127,128,127,128,0
5757,127,126,129,127,125,128,127,128,0
5760,128,129,128,126,128,128,127,128,0
5764,132,128,125,128,129,128,128,128,0
5766,124,127,128,126,128,128,128,128,0
5769,118,126,131,129,124,125,126,125,0
5772,127,127,127,129,126,126,127,128,0
5777,130,131,124,127,128,128,128,128,0
5780,127,127,128,128,124,128,129,125,0
5783,122,128,127,129,126,126,127,126,0
5785,123,129,128,126,129,128,128,128,0
5789,134,129,126,128,128,128,128,128,0
5791,127,125,130,128,127,128,127,128,0
5794,122,126,126,129,126,128,128,127,0
5796,128,128,131,129,128,128,126,127,0
5799,128,129,121,125,129,128,128,128,0
5802,124,127,130,128,126,126,129,125,0
5805,128,129,127,129,126,126,126,128,0
5808,127,127,129,128,129,128,128,129,0
5811,129,128,130,128,128,128,127,128,0
5814,125,128,127,128,128,127,128,128,0
5816,126,127,124,132,125,127,127,127,0
5819,122,128,128,125,128,128,128,129,0
5822,131,126,130,128,128,128,125,128,0
5825,131,127,131,128,128,128,127,128,0
5828,125,125,131,129,127,127,127,128,0
5831,125,126,127,123,129,128,129,129,0
5834,134,128,131,129,128,128,126,128,0
5839,126,126,130,130,126,127,127,125,0
5844,130,129,128,130,127,126,129,127,0
5848,123,127,129,126,129,128,127,128,0
5851,132,127,130,127,129,127,128,129,0
5854,130,128,125,129,128,128,129,129,0
5857,117,127,127,126,128,128,129,128,0
5862,123,127,127,128,129,128,128,129,0
5865,129,129,126,126,129,128,127,128,0
5869,126,127,130,128,127,128,129,128,0
5873,121,128,122,123,129,127,128,128,0
5877,124,126,125,127,127,128,127,128,0
5880,131,128,125,127,128,128,128,128,0
5882,131,127,129,128,125,126,128,125,0
5885,128,130,128,130,127,126,128,123,0
5888,127,129,125,128,125,129,130,129,0
5891,131,128,127,128,127,129,128,128,0
5895,129,128,125,127,128,128,129,128,0
5898,122,126,126,127,128,128,131,128,0
5901,123,129,128,129,126,128,128,128,0
5903,130,128,133,127,128,128,127,128,0
5907,129,128,126,128,128,128,126,127,0
5910,129,126,129,127,126,127,127,127,0
5914,126,127,127,127,126,128,126,128,0
5918,129,128,128,128,128,129,126,128,0
5921,132,129,128,127,126,127,127,128,0
5925,122,127,127,126,129,126,127,125,0
5929,127,127,129,129,127,126,127,126,0
5933,126,128,127,127,130,128,127,128,0
5936,130,129,126,126,128,128,128,128,0
5939,127,127,130,125,128,128,127,128,0
5942,118,126,128,128,125,128,128,129,0
5946,130,128,127,127,128,127,128,128,0
5954,134,129,129,128,127,127,127,128,0
5957,122,126,127,129,126,126,128,128,0
5961,118,127,121,121,127,127,126,127,0
5964,129,127,134,132,127,128,128,128,0
5967,130,129,126,126,129,128,128,128,0
5970,129,126,127,127,127,127,127,127,0
5972,122,127,127,127,127,128,128,129,0
5976,125,127,125,128,128,128,128,128,0
5980,132,130,128,128,127,127,128,127,0
5984,124,129,127,129,128,126,127,123,0
5987,131,128,125,128,127,127,128,126,0
5990,123,126,127,127,129,128,128,128,0
5993,133,129,127,125,128,128,127,127,0
5997,126,126,128,128,128,128,129,128,0
6000,119,126,126,129,125,126,128,126,0
6003,121,127,130,125,129,127,128,128,0
6005,131,128,126,127,128,128,127,127,0
6009,129,125,131,126,130,128,126,128,0
6012,122,127,127,127,127,127,129,128,0
6015,129,128,127,129,127,127,126,128,0
6020,130,128,127,127,129,128,128,128,0
6023,128,125,129,129,127,126,127,125,0
6026,129,128,128,130,127,126,127,127,0
6029,120,128,123,126,128,128,127,129,0
6032,132,128,128,127,129,129,128,129,0
6035,130,126,127,127,131,128,129,129,0
6038,128,127,128,127,127,127,126,128,0
6041,125,126,130,127,129,128,127,129,0
6044,130,128,126,131,128,127,128,128,0
6049,125,128,124,125,129,128,127,128,0
6052,121,127,132,129,129,128,128,128,0
6056,123,127,131,130,129,127,127,128,0
6062,127,127,128,126,127,127,126,128,0
6066,129,131,125,127,128,128,127,126,0
6069,126,128,129,133,127,126,127,125,0
6072,128,130,125,125,125,128,127,128,0
6075,130,130,127,128,129,128,127,127,0
6078,129,128,126,127,130,128,129,128,0
6081,130,126,131,129,124,128,127,127,0
6083,125,126,126,128,125,128,128,128,0
6086,132,129,127,127,127,127,128,128,0
6089,129,127,127,128,127,127,126,127,0
6094,128,128,128,129,125,126,128,126,0
6100,125,128,129,129,126,126,128,129,0
6104,133,128,126,127,128,128,128,128,0
6106,128,129,127,127,127,128,127,126,0
6110,117,127,128,130,127,127,128,127,0
6114,119,127,128,128,131,128,131,129,0
6118,133,128,127,129,129,128,127,128,0
6121,133,129,128,126,128,128,127,128,0
6125,124,125,126,125,127,127,128,127,0
6128,125,126,127,128,130,128,129,129,0
6131,128,128,126,128,128,128,129,128,0
6134,129,128,128,128,126,128,128,128,0
6137,118,129,130,131,126,126,127,125,0
6141,125,129,123,127,127,127,128,126,0
6144,125,128,128,126,128,128,128,128,0
6148,131,129,126,125,127,128,127,128,0
6151,131,127,129,129,129,129,128,124,0
6159,131,129,126,127,128,128,127,128,0
6167,133,128,128,128,128,128,127,128,0
6155,118,128,127,129,124,127,128,128,0
6172,127,126,129,126,129,127,126,127,0
6178,119,128,127,129,126,126,127,128,0
6182,131,127,126,127,128,128,128,129,0
6185,129,127,130,127,128,128,129,129,0
6189,124,127,127,125,129,129,130,128,0
6192,126,128,125,127,126,126,128,126,0
6195,124,129,127,129,126,126,127,129,0
6198,129,128,128,126,129,128,127,128,0
6202,128,125,130,126,129,128,128,128,0
6205,122,126,127,127,127,128,128,128,0
6208,130,127,129,130,129,128,127,128,0
6212,131,127,126,128,128,128,128,129,0
6215,125,127,127,129,127,126,128,127,0
6218,124,128,128,129,126,127,128,127,0
6221,124,127,128,128,128,128,127,128,0
6225,131,130,126,126,129,128,129,128,0
6227,129,127,123,122,129,128,128,128,0
6231,125,126,127,128,127,127,129,128,0
6234,128,128,130,128,127,129,127,128,0
6238,130,128,128,127,129,128,128,128,0
6240,128,126,130,129,126,126,127,125,0
6243,123,129,124,130,126,126,128,126,0
6247,123,128,126,127,129,129,128,128,0
6251,131,127,125,125,129,128,129,128,0
6255,131,128,130,128,127,128,126,126,0
6260,128,128,123,129,125,126,127,125,0
6263,123,128,130,129,127,129,128,129,0
6266,128,129,127,125,129,128,127,128,0
6270,131,128,127,131,127,127,127,128,0
6273,124,127,126,123,125,129,128,127,0
6277,120,125,128,128,128,129,127,129,0
6281,131,128,129,125,129,128,128,128,0
6284,130,128,126,127,126,128,128,128,0
6289,129,126,129,126,129,127,127,128,0
6292,128,126,127,129,128,128,127,128,0
6296,132,129,126,127,129,128,128,128,0
6300,126,127,128,128,129,128,127,124,0
6303,132,129,127,130,128,126,127,125,0
6306,127,128,128,129,127,129,127,128,0
6309,131,128,126,125,128,128,128,129,0
6312,129,129,125,127,130,128,128,127,0
6315,125,127,126,128,129,126,127,127,0
6318,130,127,126,127,129,128,128,128,0
6321,131,127,131,129,126,128,128,128,0
6325,128,129,127,128,126,128,128,127,0
6329,124,128,127,127,126,126,127,125,0
6333,123,129,128,128,127,126,127,128,0
6335,135,128,131,128,128,128,128,128,0
6338,132,128,126,126,129,128,127,127,0
6341,129,127,129,125,127,128,126,127,0
6343,119,127,123,128,127,127,127,128,0
6347,132,129,127,127,128,127,127,129,0
6350,130,127,127,127,127,127,127,128,0
6354,122,126,129,128,128,127,127,128,0
6357,122,126,129,127,130,127,128,128,0
6360,131,128,128,128,128,129,127,128,0
6364,126,127,126,127,128,127,127,127,0
6367,122,127,129,130,126,126,127,124,0
6370,132,128,127,129,126,127,128,127,0
6373,122,129,126,129,129,128,128,128,0
6376,130,129,120,125,129,128,129,129,0
6380,130,128,128,126,127,128,128,127,0
6386,127,125,129,128,128,128,128,128,0
6391,128,127,129,129,127,128,127,127,0
6394,132,128,129,129,126,128,127,128,0
6397,124,126,128,130,126,126,127,126,0
6400,123,128,129,132,126,126,128,127,0
6404,125,128,127,123,129,129,129,129,0
6407,134,127,127,127,128,128,127,128,0
6409,130,126,127,125,128,128,128,127,0
6413,125,128,126,128,129,128,128,128,0
6416,125,128,126,125,129,128,128,128,0
6420,133,129,126,126,128,128,128,128,0
6422,126,126,123,123,128,128,129,128,0
6425,126,126,129,130,125,126,128,126,0
6428,123,128,128,131,125,128,127,128,0
6433,131,129,127,129,128,128,127,128,0
6436,131,126,132,129,126,128,128,127,0
6440,128,128,126,126,128,129,127,128,0
6446,130,127,130,126,127,128,128,129,0
6450,126,127,127,127,128,128,129,129,0
6455,127,127,131,128,127,128,128,128,0
6459,121,128,126,128,126,127,128,126,0
6468,123,128,127,130,125,128,128,128,0
6471,134,129,127,128,128,128,126,127,0
6477,132,129,130,129,126,127,127,126,0
6480,132,127,128,128,127,127,128,126,0
6483,123,128,126,129,126,127,128,128,0
6487,132,128,127,127,128,128,127,128,0
6490,133,128,126,127,130,127,126,127,0
6493,131,126,128,126,130,128,127,127,0
6498,128,127,131,129,130,128,128,128,0
6504,124,129,128,128,129,128,127,128,0
6507,130,128,126,126,125,128,128,128,0
6511,119,128,129,130,126,126,127,126,0
6514,124,130,127,129,126,127,127,129,0
6517,132,128,127,125,129,128,128,128,0
6520,131,128,129,127,129,128,127,128,0
6524,128,129,127,129,128,127,127,126,0
6527,123,129,127,129,127,127,129,128,0
6530,131,129,126,125,128,128,127,128,0
6533,130,127,126,126,128,128,129,128,0
6536,127,127,129,127,125,128,127,127,0
6540,130,126,130,125,129,128,127,128,0
6543,130,129,129,126,129,127,128,128,0
6548,129,127,128,127,128,126,127,125,0
6552,126,127,129,128,126,126,127,125,0
6555,123,128,127,128,128,128,128,129,0
6558,131,128,126,127,127,127,128,128,0
6562,133,128,131,128,127,127,127,127,0
6565,131,126,123,123,129,127,127,125,0
6568,118,127,127,129,127,126,126,129,0
6571,130,129,127,127,129,128,127,128,0
6575,131,128,130,126,128,128,127,128,0
6579,128,126,128,125,128,128,129,128,0
6583,125,127,127,126,127,129,127,128,0
6586,127,130,126,129,128,129,127,128,0
6590,131,127,127,127,127,128,129,129,0
6592,126,126,129,130,127,126,127,126,0
6596,122,129,128,129,127,127,128,126,0
6600,122,129,126,128,129,128,128,129,0
6603,133,127,128,127,127,128,127,127,0
6607,127,125,131,127,128,127,126,127,0
6613,123,128,128,128,127,128,128,129,0
6618,131,130,130,129,129,128,128,128,0
6622,130,129,129,131,126,128,127,128,0
6626,129,128,129,125,127,126,128,126,0
6630,124,128,128,130,126,127,128,126,0
6632,126,128,128,127,129,128,128,129,0
6636,132,129,124,127,128,128,127,127,0
6639,126,128,128,128,127,127,127,127,0
6643,129,125,131,130,125,127,127,128,0
6647,130,128,128,126,130,128,127,128,0
6650,135,128,129,129,129,128,129,129,0
6656,129,127,128,127,129,128,128,128,0
6660,119,127,131,130,126,126,127,126,0
6663,123,128,126,126,130,128,128,129,0
6666,132,128,124,127,126,128,127,128,0
6673,130,129,128,126,127,127,127,128,0
6676,126,126,129,128,128,128,126,127,0
6679,126,128,128,126,130,127,128,129,0
6682,129,127,129,129,126,128,128,128,0
6686,127,128,122,123,126,127,128,128,0
6690,125,125,128,129,127,126,128,123,0
6694,130,127,128,129,126,126,128,128,0
6699,131,128,126,127,129,127,128,129,0
6702,128,128,127,127,126,128,128,128,0
6706,131,125,131,128,125,126,127,127,0
6709,124,127,129,129,126,127,128,129,0
6713,130,129,124,128,129,129,128,128,0
6716,128,128,128,125,128,128,129,127,0
6720,130,126,128,125,129,130,128,125,0
6724,124,128,129,129,125,127,128,129,0
6729,131,128,127,125,128,128,127,129,0
6733,130,128,129,127,128,128,126,128,0
6735,126,125,127,127,128,127,129,126,0
6739,119,128,128,127,128,127,126,128,0
6742,133,128,127,127,128,128,126,128,0
6745,128,128,129,127,127,128,127,128,0
6748,121,128,127,128,129,127,127,125,0
6751,123,127,128,130,126,127,128,126,0
6753,125,129,129,129,128,128,126,128,0
6756,131,128,125,126,127,128,127,128,0
6760,119,127,131,128,128,128,127,127,0
6762,123,128,123,128,128,128,129,128,0
6770,130,129,126,127,128,128,126,127,0
6773,129,126,130,129,129,128,127,128,0
6777,133,126,129,127,127,127,127,128,0
6780,129,126,128,130,125,126,127,126,0
6783,125,129,126,128,127,126,127,129,0
6787,131,128,128,130,130,128,129,126,0
6790,132,124,130,129,127,127,128,126,0
6793,121,131,123,127,127,127,127,127,0
6797,130,129,128,125,128,128,128,129,0
6800,134,128,128,127,128,128,127,128,0
6803,130,126,130,127,127,128,126,127,0
6807,126,124,131,131,128,127,127,128,0
6810,128,129,123,125,129,128,127,129,0
6812,130,127,129,127,128,128,126,127,0
6815,125,127,126,125,129,128,129,126,0
6818,123,128,128,129,126,126,128,126,0
6820,125,128,127,127,128,128,127,128,0
6823,132,128,127,126,128,128,128,128,0
6828,128,127,129,128,126,127,126,127,0
6833,124,126,125,126,129,128,128,129,0
6837,129,128,126,128,128,127,126,128,0
6840,129,128,128,128,127,128,125,127,0
6843,127,127,129,128,128,126,126,127,0
6845,131,128,127,129,127,126,129,127,0
6850,125,128,126,128,128,128,128,129,0
6852,132,128,126,127,128,128,128,128,0
6857,131,127,128,129,127,128,127,125,0
6859,120,126,125,126,126,128,126,128,0
6862,127,127,128,128,128,128,129,129,0
6866,132,128,125,127,127,127,128,128,0
6869,131,128,129,128,126,127,127,128,0
6872,127,126,128,126,127,128,129,128,0
6875,122,128,127,129,128,127,127,128,0
6877,128,129,130,128,128,128,127,127,0
6881,132,128,129,129,128,126,128,124,0
6884,132,129,126,127,127,127,127,127,0
6887,125,127,129,125,129,128,127,128,0
6890,134,128,132,129,128,128,127,128,0
6894,127,129,126,125,128,128,130,125,0
6897,124,128,126,129,126,127,128,127,0
6900,124,128,127,129,126,128,128,128,0
6905,133,128,129,126,129,128,127,128,0
6908,129,128,126,127,132,128,128,128,0
6911,125,126,128,128,129,128,128,128,0
6915,127,127,129,130,127,128,127,128,0
6918,134,128,127,125,128,128,126,128,0
6922,127,130,127,128,126,127,128,125,0
6925,122,127,127,129,126,126,127,126,0
6930,123,128,128,129,128,128,127,128,0
6935,132,128,127,125,129,128,127,128,0
6942,131,128,127,128,128,127,130,128,0
6945,124,125,127,128,128,129,131,127,0
6948,126,125,128,129,129,127,127,128,0
6952,130,129,125,128,128,128,126,127,0
6955,130,128,128,129,127,126,126,127,0
6960,128,125,128,130,126,126,128,127,0
6963,119,129,128,130,126,126,127,128,0
6966,129,129,124,124,129,129,127,128,0
6969,131,128,126,127,127,128,127,128,0
6972,127,126,130,126,124,128,128,127,0
6975,121,127,127,129,126,126,127,128,0
6978,133,128,127,128,129,127,127,128,0
6982,131,129,126,128,129,128,129,129,0
6985,126,127,128,126,129,127,127,127,0
6988,125,126,133,128,127,128,127,128,0
6992,128,129,125,128,128,128,128,128,0
6995,131,128,125,126,126,127,126,128,0
6997,127,126,130,130,127,126,127,127,0
7000,123,128,129,129,127,127,127,126,0
7003,121,127,128,125,129,128,128,129,0
7006,132,128,128,127,128,127,128,128,0
7009,129,129,129,128,127,128,128,128,0
7012,127,126,126,129,127,126,127,127,0
7014,133,128,127,129,129,128,127,127,0
7017,133,128,129,128,129,128,128,128,0
7020,131,128,128,127,128,129,127,127,0
7024,125,125,131,128,124,128,127,128,0
7028,129,129,127,126,128,129,127,128,0
7033,132,128,128,126,129,127,129,127,0
7037,121,129,127,129,127,126,127,126,0
7040,123,127,126,129,127,126,127,126,0
7045,125,128,127,125,128,128,127,128,0
7050,133,129,130,128,132,129,129,129,0
7054,128,126,126,125,127,128,127,125,0
7056,128,126,129,129,125,127,128,128,0
7060,130,127,131,129,129,127,126,128,0
7063,132,129,122,125,129,128,128,129,0
7065,129,127,129,128,129,128,127,127,0
7073,129,126,125,127,126,127,127,127,0
7078,127,128,129,128,128,128,126,128,0
7081,130,128,129,127,129,128,127,127,0
7085,129,127,124,128,124,127,127,128,0
7090,123,126,128,130,128,126,127,124,0
7094,132,128,128,130,126,126,126,129,0
7097,134,128,130,128,128,127,127,128,0
7101,128,128,125,127,131,128,129,127,0
7104,124,127,126,128,128,128,128,126,0
7108,124,128,127,129,126,128,128,128,0
7111,131,128,126,128,128,129,128,129,0
7114,128,128,129,127,126,128,127,128,0
7118,129,127,129,128,125,127,128,127,0
7121,125,127,128,129,127,126,126,127,0
7124,127,129,127,125,129,128,128,129,0
7127,129,128,127,125,129,128,129,128,0
7131,128,127,127,127,126,127,128,127,0
7134,123,127,126,127,130,129,129,129,0
7137,132,128,126,128,129,128,129,129,0
7141,129,128,128,127,127,128,128,128,0
7144,127,126,127,127,127,127,128,127,0
7147,123,128,128,129,126,126,128,126,0
7151,127,125,131,127,129,128,127,127,0
7155,133,128,128,125,129,128,128,128,0
7160,127,126,127,127,128,130,128,127,0
7163,118,127,126,126,128,127,126,128,0
7165,130,129,127,127,129,128,129,128,0
7168,129,127,127,127,127,128,128,127,0
7173,124,126,128,129,127,126,127,125,0
7176,123,128,126,129,127,127,127,128,0
7180,134,129,127,125,128,128,127,129,0
7186,131,128,127,124,128,128,129,128,0
7189,129,127,128,127,127,127,128,127,0
7193,120,127,128,128,128,127,127,129,0
7196,132,129,128,127,128,127,128,128,0
7202,132,128,128,128,128,127,127,128,0
7205,126,127,129,127,127,128,128,128,0
7209,120,127,126,128,126,126,128,126,0
7213,124,128,124,128,129,128,127,128,0
7216,131,129,126,127,128,128,128,129,0
7221,127,127,128,127,127,128,129,128,0
7225,124,127,129,127,125,127,128,128,0
7230,126,128,126,128,129,128,129,128,0
7234,128,128,127,127,127,127,127,128,0
7238,129,128,129,129,128,126,129,125,0
7241,130,129,128,130,127,126,126,128,0
7244,128,128,131,125,129,128,128,128,0
7248,131,127,127,128,127,128,126,127,0
7251,127,126,129,127,130,128,129,128,0
7253,121,127,127,127,128,127,127,129,0
7256,126,128,128,126,129,127,127,129,0
7259,127,127,126,128,128,126,127,127,0
7265,126,128,129,127,126,128,127,128,0
7268,122,126,128,127,125,129,127,127,0
7273,130,129,128,127,128,128,128,127,0
7280,131,128,128,128,129,127,128,128,0
7285,126,127,127,127,127,126,127,125,0
7290,129,128,126,130,128,126,127,126,0
7293,123,128,128,128,131,128,129,128,0
7296,136,128,126,127,127,128,128,128,0
7300,130,126,128,127,127,127,128,127,0
7303,123,127,127,129,126,126,127,127,0
7306,124,126,125,125,131,129,128,128,0
7309,132,129,129,127,128,128,127,128,0
7312,133,128,127,127,131,128,129,129,0
7315,122,127,129,126,126,128,127,128,0
7319,126,127,127,126,128,128,128,129,0
7322,132,128,126,127,127,127,128,128,0
7325,131,127,128,129,126,126,126,127,0
7328,124,128,128,129,126,126,127,126,0
7330,126,128,128,128,128,128,128,128,0
7333,134,129,120,124,129,129,128,129,0
7337,132,127,127,127,129,128,129,128,0
7340,126,127,128,127,127,128,127,128,0
7342,130,128,126,125,129,128,127,128,0
7345,130,128,128,129,129,127,128,128,0
7348,125,126,127,127,128,127,128,128,0
7354,122,127,130,130,125,126,127,127,0
7357,118,128,127,129,126,125,127,125,0
7363,129,129,126,128,128,128,127,127,0
7368,133,129,131,127,128,128,127,127,0
7377,127,127,127,128,129,128,129,128,0
7381,124,126,127,127,128,128,129,129,0
7385,131,127,126,127,127,127,126,127,0
7389,131,128,128,128,127,128,129,126,0
7393,124,128,128,128,127,126,127,126,0
7398,123,128,128,129,127,126,127,127,0
7405,131,128,126,126,129,128,129,128,0
7409,132,127,128,127,129,128,129,128,0
7412,126,127,127,127,127,127,128,126,0
7416,120,127,125,126,126,128,127,128,0
7419,131,128,128,128,129,128,128,128,0
7422,128,128,128,126,128,127,129,128,0
7425,124,126,128,128,128,127,128,128,0
7432,124,126,129,130,126,126,127,126,0
7436,126,129,128,128,129,129,127,129,0
7443,132,128,127,128,128,127,129,129,0
7446,129,127,128,129,127,126,127,127,0
7449,125,128,128,129,126,127,129,129,0
7453,134,129,128,127,127,128,127,128,0
7456,132,128,127,127,128,128,127,127,0
7459,131,128,127,126,129,128,128,127,0
7463,120,127,128,130,126,127,127,126,0
7465,123,128,129,128,129,128,128,128,0
7472,134,129,127,127,128,128,126,128,0
7474,125,127,127,128,131,128,127,127,0
7477,124,126,127,128,129,128,128,128,0
7482,129,127,127,127,127,128,126,128,0
7486,132,128,128,127,128,129,127,128,0
7489,128,127,128,127,125,127,126,126,0
7492,124,127,128,129,126,126,128,126,0
7495,124,128,128,125,128,128,129,129,0
7499,128,128,127,127,128,128,127,129,0
7502,127,127,129,127,128,128,127,128,0
7505,120,127,128,127,125,128,128,128,0
7509,127,128,127,127,128,127,128,128,0
7515,130,128,126,127,126,128,127,127,0
7521,129,128,128,128,127,128,128,126,0
7524,124,128,128,130,128,126,128,125,0
7528,128,127,127,125,128,128,128,129,0
7531,134,128,129,126,128,128,127,128,0
7534,128,128,129,128,128,130,127,127,0
7537,129,126,128,127,127,127,127,127,0
7540,128,128,127,126,127,128,128,128,0
7543,131,129,128,128,127,127,128,129,0
7547,121,127,127,126,129,126,129,124,0
7550,129,129,127,129,127,126,128,127,0
7553,121,127,127,128,129,128,127,127,0
7556,130,128,128,126,129,127,128,129,0
7559,132,128,127,127,127,127,127,127,0
7562,126,125,129,126,125,126,127,127,0
7565,126,128,130,129,129,128,127,128,0
7568,131,129,127,126,129,128,128,129,0
7571,128,127,126,126,127,128,128,128,0
7573,120,126,129,129,126,126,126,125,0
7576,122,128,127,129,126,127,127,128,0
7579,133,129,128,127,129,128,127,129,0
7581,126,127,125,126,129,128,129,128,0
7584,127,127,127,127,129,128,129,128,0
7588,124,127,127,127,128,127,127,128,0
7591,130,128,127,127,128,128,127,128,0
7596,130,128,129,129,127,127,128,126,0
7599,127,128,127,128,127,126,127,126,0
7602,124,128,129,129,126,128,127,128,0
7605,135,129,127,125,128,128,128,129,0
7607,132,127,127,127,131,128,129,128,0
7612,131,127,124,127,126,128,128,128,0
7618,127,125,128,126,127,127,128,128,0
7623,132,130,129,128,128,128,128,128,0
7627,128,128,129,126,129,128,129,127,0
7630,121,127,129,128,127,126,127,126,0
7633,122,128,128,129,126,126,128,126,0
7636,126,128,127,126,128,128,128,128,0
7640,133,128,129,128,128,128,127,128,0
7643,127,125,127,126,128,128,128,128,0
7646,123,127,128,128,128,128,128,128,0
7650,130,128,126,127,127,127,127,129,0
7653,128,127,128,128,126,127,126,127,0
7655,129,127,129,128,125,128,129,128,0
7663,118,126,128,128,126,128,126,127,0
7668,129,128,128,129,128,127,128,127,0
7672,132,127,129,127,125,126,127,126,0
7684,126,128,128,129,127,126,127,127,0
7687,125,127,127,129,126,127,127,126,0
7690,126,128,128,126,128,128,127,128,0
7694,133,127,128,128,129,128,128,128,0
7699,126,127,128,128,129,128,129,128,0
7703,125,126,127,126,127,128,126,127,0
7707,129,128,127,127,127,128,128,128,0
7711,133,128,128,128,128,129,127,126,0
7714,121,127,127,130,126,127,127,126,0
7717,124,128,127,129,126,126,127,128,0
7720,128,127,130,128,131,129,128,128,0
7724,135,128,126,127,128,129,127,128,0
7727,131,128,127,126,129,128,128,129,0
7730,124,127,127,129,125,126,127,126,0
7735,123,127,126,128,129,128,128,129,0
7742,133,128,127,127,127,128,127,128,0
7746,133,125,129,126,128,127,127,127,0
7749,126,126,130,128,127,126,127,127,0
7753,127,128,129,128,128,128,127,128,0
7756,132,128,128,128,129,128,128,127,0
7759,125,127,128,129,129,128,128,126,0
7763,129,126,131,131,126,126,128,126,0
7766,123,128,129,128,127,127,128,128,0
7778,134,129,127,127,129,127,127,128,0
7782,128,127,127,125,129,127,127,127,0
7787,127,127,127,126,126,130,129,128,0
7792,125,127,127,126,128,128,128,128,0
7795,129,129,127,128,126,128,127,127,0
7798,126,128,126,130,127,126,128,126,0
7801,125,128,128,128,128,126,127,126,0
7805,124,128,127,128,130,128,127,128,0
7808,132,129,126,127,128,129,129,129,0
7811,134,127,125,124,128,128,127,128,0
7815,130,126,128,127,125,127,127,128,0
7818,130,128,127,128,129,128,127,128,0
7820,130,129,127,126,128,127,129,129,0
7824,128,127,127,127,126,128,128,128,0
7827,119,127,127,129,126,127,126,125,0
7830,125,128,127,130,126,128,127,128,0
7834,128,130,127,129,128,128,127,129,0
7836,130,127,127,127,129,128,129,128,0
7839,124,127,128,127,127,127,126,127,0
7843,126,126,130,127,129,127,126,128,0
7846,128,129,128,127,128,128,128,128,0
7851,125,127,127,127,128,128,128,126,0
7855,123,127,128,129,126,126,126,126,0
7862,124,127,124,128,127,126,127,128,0
7867,131,128,129,126,129,128,128,128,0
7870,130,128,130,126,129,128,127,127,0
7873,127,126,127,128,128,126,127,126,0
7875,120,128,130,128,126,126,127,126,0
7878,125,127,128,125,128,128,127,128,0
7881,129,128,129,128,129,128,129,128,0
7884,126,126,128,127,125,127,126,126,0
7887,117,126,129,128,131,128,128,129,0
7903,127,128,129,127,129,127,127,129,0
7907,127,127,128,127,129,128,128,128,0
7910,126,126,126,128,127,127,127,128,0
7914,127,127,128,128,127,127,128,128,0
7919,125,128,126,128,129,128,128,129,0
7922,130,128,127,128,126,127,127,127,0
7927,127,128,129,130,127,126,127,126,0
7930,125,128,127,129,126,126,127,126,0
7934,123,127,126,126,129,128,128,128,0
7937,131,127,127,127,127,128,127,128,0
7940,128,127,128,128,124,129,127,128,0
7944,120,125,128,128,127,128,126,127,0
7947,129,128,127,126,129,128,128,129,0
7950,130,127,125,128,127,128,128,129,0
7954,123,127,130,128,129,127,128,128,0
7957,119,128,127,130,128,126,128,125,0
7960,129,128,128,127,131,128,128,129,0
7963,134,128,126,125,128,128,128,128,0
7966,130,128,128,126,126,128,127,127,0
7983,127,125,128,128,129,128,129,128,0
7990,127,129,126,126,128,128,129,129,0
7994,132,128,126,127,127,128,126,127,0
7998,132,127,129,128,128,127,127,126,0
8002,125,129,128,129,126,127,128,126,0
8006,126,128,128,129,127,128,127,129,0
8010,131,130,129,127,129,129,128,128,0
8013,130,127,127,128,130,128,130,129,0
8016,127,127,126,125,128,127,128,127,0
8020,123,127,125,126,128,128,129,129,0
8023,132,129,127,127,128,128,127,128,0
8026,126,127,126,126,128,128,128,128,0
8032,127,126,126,126,129,128,129,126,0
8035,122,128,127,130,127,127,126,128,0
8038,133,129,127,127,129,128,127,128,0
8041,130,127,126,128,129,128,129,127,0
8044,125,127,129,127,126,126,128,126,0
8047,123,128,127,129,127,126,127,128,0
8050,132,128,126,127,130,128,128,128,0
8053,129,128,127,126,129,128,128,127,0
8057,126,127,128,129,125,127,131,125,0
8064,123,127,125,127,129,128,128,128,0
8068,132,128,126,128,126,128,127,128,0
8071,131,128,128,128,126,127,127,128,0
8074,132,127,128,128,128,128,127,128,0
8077,126,127,129,128,128,127,127,128,0
8081,128,128,127,126,128,128,129,126,0
8084,128,127,127,128,126,126,128,124,0
8088,133,128,127,130,128,126,127,124,0
8098,130,127,126,128,129,129,127,129,0
8102,126,128,128,126,127,128,131,129,0
8106,127,127,126,126,128,128,128,128,0
8110,126,128,128,127,127,127,128,126,0
8115,122,127,127,130,125,127,126,129,0
8118,130,129,128,127,128,127,126,128,0
8121,130,128,127,126,128,128,128,128,0
8124,125,127,127,129,126,126,127,126,0
8128,124,127,128,129,127,126,126,129,0
8133,133,128,130,128,129,128,127,128,0
8136,132,128,127,126,127,128,128,128,0
8140,130,127,127,126,126,128,128,127,0
8143,127,126,130,127,129,127,127,127,0
8146,129,128,126,128,128,128,129,128,0
8150,129,128,125,127,128,128,129,128,0
8153,123,126,127,127,128,128,128,127,0
8176,118,127,126,130,126,127,126,126,0
8182,126,128,127,128,128,128,127,128,0
8185,130,129,128,127,129,128,129,129,0
8189,127,127,126,128,126,129,127,125,0
8192,120,126,126,128,127,128,127,128,0
8196,128,127,126,128,128,128,128,129,0
8201,131,129,127,128,126,128,126,127,0
8205,121,127,128,130,126,126,128,126,0
8209,127,127,128,129,127,127,127,125,0
8212,123,127,130,125,129,129,127,129,0
8215,130,128,126,125,131,129,129,128,0
8218,127,127,126,126,128,128,131,128,0
8222,127,127,125,128,128,128,129,129,0
8225,126,128,125,127,128,128,129,129,0
8229,128,128,126,127,127,127,128,128,0
8235,130,127,128,127,126,128,128,128,0
8239,126,127,127,128,124,128,128,127,0
8243,124,128,127,129,126,127,126,126,0
8246,128,129,128,129,126,129,127,129,0
8249,131,127,126,127,129,128,129,128,0
8253,129,126,128,126,129,128,127,129,0
8256,132,128,128,127,128,128,127,128,0
8259,130,129,128,127,129,127,127,128,0
8262,128,127,126,128,128,126,128,126,0
8265,124,128,129,129,127,126,127,125,0
8268,125,127,128,129,127,126,128,128,0
8271,131,129,127,127,128,128,128,128,0
8274,131,127,127,128,130,128,129,128,0
8281,127,127,128,129,126,126,127,126,0
8284,124,127,128,125,128,128,127,128,0
8289,129,129,127,126,129,128,127,128,0
8293,130,127,127,127,129,128,129,128,0
8296,130,126,128,128,126,127,127,127,0
8300,126,127,129,127,127,127,127,129,0
8304,127,129,127,127,126,127,127,128,0
8308,128,128,130,129,127,128,126,128,0
8311,123,127,128,128,126,127,126,127,0
8314,126,127,128,128,126,127,127,128,0
8317,127,129,130,128,128,127,126,127,0
8321,125,127,128,129,125,126,127,126,0
8328,124,128,127,130,127,126,127,126,0
8332,123,127,129,130,126,127,127,128,0
8335,134,128,127,126,128,128,127,128,0
8339,130,127,128,126,127,127,128,128,0
8343,122,126,126,125,127,127,129,128,0
8348,125,127,128,129,126,127,128,129,0
8355,131,128,127,127,128,128,126,128,0
8360,131,128,128,127,127,127,128,128,0
8363,129,127,129,128,129,128,127,125,0
8366,123,127,127,130,127,127,126,126,0
8370,125,128,128,126,129,128,127,128,0
8373,131,127,129,126,130,128,129,129,0
8376,124,126,127,125,129,128,127,127,0
8379,128,126,129,130,128,126,127,126,0
8383,125,128,126,126,129,128,129,129,0
8386,131,128,126,127,128,128,126,128,0
8390,128,127,127,128,128,127,127,127,0
8393,128,126,127,127,129,128,127,128,0
8396,129,129,128,126,129,128,128,129,0
8411,132,128,128,128,126,128,127,128,0
8415,120,129,128,130,127,127,127,126,0
8419,126,128,127,128,127,127,127,127,0
8422,126,128,128,126,128,128,128,128,0
8426,133,128,127,128,128,128,128,128,0
8429,127,127,128,128,131,128,129,128,0
8432,120,126,127,125,128,128,128,128,0
8435,130,129,129,128,127,128,129,128,0
8439,130,128,127,127,125,127,128,128,0
8442,125,126,128,127,129,126,127,126,0
8445,124,127,129,129,126,126,127,126,0
8450,124,128,128,128,129,129,128,129,0
8454,134,128,127,125,128,129,127,128,0
8457,132,125,128,128,128,128,128,128,0
8461,126,126,127,128,126,127,127,127,0
8466,132,128,127,126,128,128,126,127,0
8471,129,128,127,126,129,127,128,128,0
8474,127,127,127,127,126,127,127,127,0
8478,130,127,129,129,126,126,127,126,0
8481,123,128,128,129,126,128,128,128,0
8484,133,129,127,127,128,128,127,128,0
8490,128,127,128,127,127,128,126,127,0
8493,130,126,128,127,127,127,126,128,0
8497,130,129,128,127,126,127,128,129,0
8502,132,128,128,128,125,127,127,128,0
8504,133,127,128,128,125,127,127,128,0
8507,126,126,127,126,127,127,128,126,0
8511,123,128,128,130,126,126,127,126,0
8514,127,129,128,129,127,126,127,127,0
8564,125,127,128,127,129,128,129,128,0
8573,128,126,126,125,128,128,127,127,0
8582,129,128,130,127,129,128,127,128,0
8596,132,129,128,127,127,128,126,127,0
8601,129,128,130,128,125,128,126,127,0
8605,127,126,129,127,128,128,128,127,0
8636,124,128,128,128,129,128,128,129,0
8646,127,128,126,128,129,128,128,128,0
8653,124,127,128,126,127,128,127,128,0
8660,120,129,126,130,128,126,128,124,0
8667,127,129,127,129,126,127,128,129,0
8702,131,129,129,127,127,128,128,128,0
8714,128,128,127,127,127,128,127,127,0
8727,129,126,128,126,128,129,128,127,0
8767,125,127,128,129,126,127,128,128,0
8778,130,128,127,127,127,128,128,128,0
8787,128,128,127,127,127,128,126,127,0
8792,125,127,127,127,125,128,128,127,0
8797,122,128,127,130,126,126,127,126,0
8840,124,129,128,126,128,128,128,128,0
8850,133,128,128,127,128,128,127,128,0
8859,124,127,127,128,129,128,126,127,0
8867,119,127,127,128,129,128,129,129,0
8872,126,128,127,129,128,128,127,128,0
8877,130,128,126,127,127,128,126,128,0
8881,129,127,128,127,126,126,127,126,0
8885,124,128,127,129,127,126,127,126,0
8894,125,127,127,127,128,128,127,128,0
8898,131,128,126,127,128,127,127,128,0
8901,123,125,129,128,129,127,128,128,0
8904,125,126,128,128,125,128,126,128,0
8908,130,128,128,126,129,128,128,129,0
8911,128,129,129,126,128,127,128,127,0
8914,124,128,130,131,125,126,127,126,0
8918,125,128,127,128,127,127,127,127,0
8921,127,128,126,128,129,128,129,129,0
8924,132,128,127,126,129,128,129,129,0
8928,125,127,127,126,129,128,127,127,0
8931,128,128,129,128,126,126,127,126,0
8934,123,127,128,126,129,128,127,128,0
8937,128,129,128,127,129,129,128,128,0
8941,129,126,130,126,127,127,128,128,0
8944,127,123,129,128,129,128,129,128,0
8949,128,127,127,128,127,128,127,128,0
8953,132,128,128,127,126,128,126,127,0
8958,127,127,129,128,125,128,127,127,0
8961,127,126,129,130,127,126,126,125,0
8964,126,128,127,129,125,127,126,128,0
8967,133,128,127,127,127,128,127,128,0
8970,130,127,128,127,125,127,126,127,0
8972,126,128,127,129,128,128,129,127,0
8976,122,127,126,129,129,128,129,129,0
8979,130,128,127,127,129,126,127,128,0
8982,127,127,127,127,126,126,127,126,0
8985,126,128,126,128,127,127,127,126,0
8988,123,129,128,129,125,128,127,128,0
9040,134,128,126,126,128,128,127,129,0
9052,131,128,127,126,129,128,127,128,0
9060,127,127,127,128,127,127,126,126,0
9067,123,127,128,129,124,129,128,128,0
9073,130,128,127,128,131,128,128,128,0
9105,131,127,127,127,127,127,126,127,0
9114,127,126,129,128,127,126,128,127,0
9122,119,126,125,128,129,128,128,128,0
9129,130,128,126,127,128,128,128,128,0
9134,132,127,126,127,126,127,128,128,0
9140,126,128,128,128,126,126,127,126,0
9145,122,129,128,129,127,126,126,128,0
9149,131,128,127,126,128,128,128,128,0
9153,134,128,127,128,127,129,127,128,0
9156,129,128,129,127,126,128,127,127,0
9160,127,125,130,129,128,127,128,129,0
9165,130,128,126,128,127,128,126,128,0
9170,130,128,129,127,125,128,127,128,0
9174,120,127,128,130,126,127,127,126,0
9177,124,128,128,128,126,126,127,128,0
9180,131,128,127,126,128,129,128,128,0
9183,130,128,126,127,128,128,129,128,0
9186,127,127,126,128,131,127,128,126,0
9190,120,127,128,129,126,127,129,128,0
9194,131,129,129,127,128,127,126,128,0
9197,134,128,129,128,129,129,128,128,0
9201,128,127,128,127,129,128,127,128,0
9205,119,126,128,129,128,126,129,129,0
9209,126,128,126,127,127,128,128,128,0
9212,134,128,129,128,126,128,127,126,0
9216,128,127,130,129,127,126,127,126,0
9219,125,128,128,129,127,126,127,126,0
9222,124,127,126,128,130,128,128,128,0
9226,132,128,129,128,129,128,128,127,0
9230,129,126,129,128,125,128,126,126,0
9233,125,125,127,126,129,128,130,128,0
9236,132,127,125,127,127,128,128,128,0
9239,130,128,128,128,128,128,127,128,0
9242,128,126,127,127,128,128,127,126,0
9245,124,128,127,130,127,127,127,125,0
9250,128,128,129,129,127,127,127,129,0
9253,132,130,128,127,127,129,126,127,0
9257,128,127,130,128,125,128,127,127,0
9260,125,126,127,128,129,127,127,127,0
9263,123,129,128,128,129,128,128,128,0
9266,130,128,126,127,128,128,129,128,0
9271,129,127,129,130,126,126,126,126,0
9275,124,128,128,128,126,126,127,126,0
9281,121,127,127,127,129,128,126,127,0
9286,133,129,128,127,129,127,127,127,0
9291,130,127,126,128,129,128,128,128,0
9294,117,125,128,127,129,128,128,128,0
9298,128,127,126,127,127,128,128,128,0
9307,131,129,127,128,127,127,126,127,0
9311,130,128,128,126,128,128,127,128,0
9315,125,126,128,126,128,128,128,128,0
9318,121,127,128,128,126,128,127,128,0
9322,133,128,128,129,128,128,128,128,0
9325,124,128,128,128,126,127,127,124,0
9329,132,129,127,130,128,126,128,125,0
9334,129,127,127,129,126,128,127,129,0
9338,130,129,127,125,128,128,127,127,0
9340,130,128,129,128,129,128,128,128,0
9344,126,126,128,127,127,128,127,128,0
9376,125,126,127,128,130,128,127,128,0
9385,125,128,128,126,129,128,128,128,0
9393,127,128,129,128,125,127,127,127,0
9400,125,127,128,128,127,128,127,127,0
9407,120,127,127,127,129,128,129,128,0
9443,128,128,127,127,127,128,126,127,0
9452,131,128,127,128,129,126,126,125,0
9460,129,129,126,130,128,126,127,125,0
9467,128,129,128,129,125,126,129,129,0
9473,131,128,126,126,128,128,127,127,0
9482,130,126,128,126,128,128,127,127,0
9490,124,125,128,128,130,128,129,128,0
9499,122,127,126,128,127,128,128,128,0
9510,128,128,126,128,127,128,128,129,0
9515,132,127,128,127,126,128,129,129,0
9521,126,127,126,128,127,128,128,128,0
9526,118,129,128,129,126,126,128,127,0
9530,124,129,129,128,129,128,127,129,0
9533,131,127,126,126,128,128,128,129,0
9536,127,127,128,127,127,128,127,127,0
9540,128,125,130,125,129,128,129,128,0
9543,127,128,127,126,129,127,128,129,0
9547,127,128,127,128,127,127,128,128,0
9549,126,126,127,128,129,128,128,126,0
9554,123,128,127,129,126,127,127,127,0
9557,128,128,127,128,129,128,127,128,0
9561,131,128,127,128,131,128,129,128,0
9567,124,127,128,129,126,128,126,128,0
9572,132,128,127,128,129,128,127,128,0
9574,130,128,127,126,128,128,127,128,0
9578,128,127,128,127,128,128,126,125,0
9582,118,124,128,128,128,128,127,128,0
9564,128,127,128,129,127,127,127,127,0
9585,133,128,127,128,128,127,127,127,0
9588,133,128,129,128,125,128,128,129,0
9592,120,129,128,130,126,127,127,125,0
9595,125,128,127,129,127,125,127,128,0
9598,129,128,129,127,129,128,128,128,0
9601,130,128,126,127,127,128,127,127,0
9604,130,127,128,126,129,128,129,126,0
9607,120,127,128,129,126,126,128,128,0
9611,130,128,126,126,129,127,128,128,0
9614,132,128,127,127,128,128,126,128,0
9620,128,128,130,128,128,128,127,128,0
9626,122,128,129,127,128,127,127,128,0
9631,126,128,130,129,128,129,127,128,0
9634,129,128,126,129,129,128,127,128,0
9637,129,128,127,127,126,127,128,126,0
9640,128,128,125,129,128,126,128,127,0
9643,123,128,127,128,128,128,129,129,0
9647,131,128,126,126,128,128,128,128,0
9652,132,128,128,126,129,128,129,128,0
9655,124,126,127,127,127,129,128,128,0
9658,122,125,128,128,128,128,126,128,0
9661,129,128,129,128,125,127,126,128,0
9664,129,127,127,127,127,128,127,128,0
9667,130,127,129,128,126,128,127,127,0
9670,128,127,128,127,125,128,127,127,0
9674,129,129,129,129,128,128,127,128,0
9677,124,128,125,126,129,127,127,125,0
9680,127,128,127,130,128,126,128,125,0
9683,129,128,127,129,126,128,126,128,0
9685,131,128,126,127,127,128,127,129,0
9688,128,127,127,126,126,128,127,127,0
9691,127,125,129,128,127,125,128,126,0
9694,124,128,127,129,123,128,130,129,0
9698,131,129,128,126,129,128,127,128,0
9701,129,127,126,127,131,128,129,128,0
9704,126,126,126,126,126,127,129,126,0
9710,123,128,128,130,127,127,127,128,0
9714,131,128,127,126,128,128,128,129,0
9718,130,128,127,128,127,128,127,125,0
9724,124,127,126,127,125,127,129,127,0
9727,121,127,129,130,126,127,129,129,0
9730,132,128,126,125,128,128,129,129,0
9736,127,128,126,127,125,128,128,128,0
9742,123,127,127,128,126,126,128,126,0
9746,124,128,127,129,127,127,127,126,0
9749,128,128,126,125,129,128,126,128,0
9752,133,128,129,128,131,128,130,128,0
9755,128,127,126,125,129,128,129,128,0
9759,126,126,128,127,128,128,126,127,0
9762,130,129,128,129,128,128,126,127,0
9765,131,128,130,128,127,128,127,127,0
9770,126,128,127,127,128,126,128,126,0
9773,123,127,128,129,126,126,127,127,0
9775,122,128,125,127,129,128,127,128,0
9778,133,128,126,128,128,128,129,128,0
9781,127,127,127,128,128,129,129,126,0
9784,124,127,127,129,126,126,127,126,0
9787,123,128,126,128,129,128,126,128,0
9790,131,128,126,128,130,128,129,128,0
9793,119,127,128,129,125,129,129,128,0
9798,123,125,127,127,128,128,128,128,0
9803,130,128,126,127,128,128,128,128,0
9807,132,128,129,127,126,126,128,128,0
9810,129,127,126,127,128,127,127,127,0
9813,124,128,127,129,126,126,128,126,0
9817,126,128,128,129,126,128,129,129,0
9820,132,128,126,127,129,128,128,128,0
9824,133,128,131,128,125,127,128,127,0
9827,123,127,124,124,128,127,129,128,0
9830,129,129,127,127,126,127,126,127,0
9833,130,129,129,127,127,127,128,127,0
9837,132,127,125,128,126,129,128,125,0
9841,131,129,126,129,128,126,127,127,0
9846,127,128,128,128,128,128,129,129,0
9849,131,128,126,127,127,127,127,128,0
9852,131,127,128,127,127,129,126,127,0
9855,128,127,126,127,127,129,126,127,0
9860,127,128,130,127,127,127,128,129,0
9863,128,128,126,126,129,128,128,129,0
9869,128,127,130,130,127,126,127,125,0
9866,127,128,128,126,129,127,127,128,0
9873,129,128,127,129,124,127,127,128,0
9878,132,129,127,126,129,128,127,128,0
9881,129,128,128,128,128,128,129,128,0
9884,124,127,129,128,129,127,127,127,0
9887,119,126,128,128,127,128,129,129,0
9890,131,128,126,127,127,127,126,128,0
9893,129,129,129,127,127,127,127,128,0
9896,129,128,127,128,127,128,127,125,0
9899,123,128,128,129,127,126,127,126,0
9903,126,127,126,127,129,128,126,128,0
9905,133,128,128,126,128,127,127,128,0
9912,128,127,128,129,126,126,127,126,0
9914,124,128,128,129,126,128,128,128,0
9917,131,128,125,125,129,128,128,128,0
9920,133,128,127,127,127,128,127,127,0
9924,129,124,129,126,130,127,127,126,0
9926,123,128,127,129,125,128,127,128,0
9929,134,129,129,128,128,128,127,127,0
9932,133,128,128,127,128,128,127,127,0
9936,125,126,128,126,126,127,129,128,0
9939,123,127,126,126,128,127,127,129,0
9944,129,128,127,128,127,128,128,128,0
9949,120,127,128,128,129,126,128,127,0
9952,126,126,127,128,126,128,129,126,0
9955,130,128,127,130,127,126,127,126,0
9959,125,128,129,127,128,128,128,128,0
9962,130,129,126,127,128,128,128,129,0
9965,127,126,127,128,126,127,127,127,0
9969,126,128,128,129,127,126,127,129,0
9972,132,128,126,127,129,128,128,128,0
9975,135,127,128,125,129,128,129,129,0
9978,129,127,128,127,125,128,130,127,0
9983,117,127,127,129,125,128,129,130,0
9985,129,128,128,128,129,128,128,128,0
9991,130,128,124,127,128,128,129,129,0
9995,126,126,129,129,127,127,127,128,0
9998,128,127,120,126,126,128,127,128,0
10001,132,127,128,127,126,128,126,127,0
10004,130,128,128,129,125,127,127,127,0
10007,128,128,129,128,126,128,126,127,0
10010,126,124,129,130,128,127,128,124,0
10014,133,129,129,130,127,127,126,128,0
10017,132,129,126,127,129,128,127,128,0
10020,125,128,132,129,124,127,127,127,0
10022,125,126,123,127,127,127,127,127,0
10025,131,128,127,128,129,128,129,129,0
10027,129,129,127,128,127,128,127,128,0
10031,122,128,127,129,127,126,127,126,0
10035,124,128,129,129,126,126,127,125,0
10037,124,127,128,127,129,128,127,128,0
10041,133,128,129,128,130,129,128,129,0
10045,125,127,126,127,128,128,128,128,0
10052,124,126,127,129,126,126,127,126,0
10056,125,128,128,128,129,128,127,127,0
10060,134,129,127,127,129,128,129,128,0
10063,129,127,127,127,126,127,128,128,0
10067,128,127,128,128,125,129,127,128,0
10070,128,127,126,127,128,128,128,128,0
10072,130,128,129,128,127,128,127,128,0
10075,127,129,129,128,124,128,127,127,0
10078,119,128,125,129,127,126,127,126,0
10083,128,128,127,128,129,128,126,128,0
10086,130,128,127,126,128,127,127,127,0
10090,128,128,126,126,129,128,129,129,0
10093,124,125,130,127,124,126,126,126,0
10101,122,128,129,130,126,126,129,128,0
10104,130,128,124,125,128,128,128,128,0
10109,130,128,126,125,129,128,128,128,0
10112,125,126,126,128,128,129,128,128,0
10115,124,126,126,128,128,128,128,128,0
10118,132,128,127,128,126,128,127,128,0
10121,132,128,129,128,126,128,127,128,0
10125,125,127,129,128,127,127,127,125,0
10128,126,127,128,130,126,126,127,127,0
10131,124,128,126,127,130,128,129,128,0
10134,130,128,125,127,127,128,128,128,0
10138,130,126,128,127,126,128,128,128,0
10140,127,128,129,128,125,128,128,128,0
10144,129,128,126,128,126,128,127,128,0
10147,130,128,128,128,129,128,127,126,0
10150,126,128,127,129,126,126,127,127,0
10156,124,127,127,128,127,127,127,128,0
10161,131,127,127,128,129,128,128,128,0
10164,131,128,126,126,128,129,128,128,0
10168,131,126,130,128,125,126,128,127,0
10171,125,127,129,129,126,127,128,129,0
10174,129,128,125,126,129,128,127,129,0
10177,131,128,126,126,128,128,127,128,0
10181,129,127,128,127,128,128,127,127,0
10184,123,126,126,128,128,128,128,128,0
10189,126,128,128,129,127,127,127,128,0
10192,130,129,123,126,126,128,127,127,0
10194,129,127,128,127,126,128,127,127,0
10198,123,127,127,129,126,126,127,126,0
10201,128,128,127,126,129,128,127,127,0
10204,130,128,128,128,129,127,128,128,0
10208,123,126,128,128,126,126,127,126,0
10211,125,128,130,129,127,127,127,128,0
10213,131,127,127,126,129,128,128,128,0
10217,131,128,127,125,129,128,128,128,0
10220,129,127,127,127,127,127,127,127,0
10223,126,127,129,128,125,128,127,128,0
10226,130,128,128,127,127,128,127,128,0
10230,131,128,129,128,128,127,126,127,0
10233,125,125,129,129,126,126,128,126,0
10237,124,128,128,129,125,127,127,128,0
10240,131,128,128,127,128,128,128,128,0
10243,131,128,126,125,128,128,128,129,0
10248,128,127,128,126,124,128,128,127,0
10251,127,126,128,127,124,127,128,127,0
10256,122,126,126,127,129,128,129,129,0
10260,131,128,127,128,127,127,128,128,0
10263,130,127,129,127,124,126,128,126,0
10267,124,128,128,130,126,126,128,127,0
10270,125,128,127,128,129,128,127,128,0
10272,130,128,127,126,128,128,127,128,0
10276,132,128,127,125,128,128,126,128,0
10279,125,126,128,128,128,127,127,126,0
10282,125,128,128,129,125,128,129,128,0
10286,130,128,127,127,128,127,126,127,0
10290,129,128,129,127,129,128,129,128,0
10293,129,127,128,126,128,130,127,127,0
10297,125,127,132,127,128,128,128,129,0
10300,129,129,126,128,129,127,129,128,0
10302,132,127,129,128,127,127,127,127,0
10307,129,126,127,130,127,126,128,126,0
10310,126,130,127,129,125,128,128,129,0
10314,130,128,126,127,129,128,128,129,0
10318,128,127,127,127,125,127,128,128,0
10322,124,127,128,127,125,128,126,127,0
10326,127,127,127,127,126,128,126,128,0
10329,129,129,128,127,127,128,127,127,0
10333,127,128,129,129,129,128,126,127,0
10336,127,125,128,130,127,127,128,126,0
10339,123,128,128,129,127,126,126,129,0
10343,131,129,127,126,129,128,128,129,0
10346,135,129,130,127,129,129,127,128,0
10350,122,126,127,128,130,128,129,125,0
10353,120,127,128,126,128,128,128,128,0
10357,131,128,126,127,128,127,129,128,0
10360,132,127,126,127,128,128,128,128,0
10364,128,127,127,128,128,127,128,127,0
10370,121,128,127,129,127,126,126,126,0
10375,125,128,128,128,126,127,128,128,0
10379,133,128,126,127,128,128,127,128,0
10382,126,126,126,127,129,128,129,128,0
10385,120,126,127,127,125,128,129,129,0
10388,126,128,127,126,127,127,127,128,0
10391,131,128,129,128,127,127,127,128,0
10394,124,126,127,128,125,126,128,126,0
10398,126,127,128,129,127,126,128,126,0
10403,125,129,129,130,127,126,128,127,0
10406,129,129,125,125,131,129,128,128,0
10410,129,128,129,127,127,128,127,128,0
10414,127,126,126,126,127,128,126,128,0
10418,132,128,129,128,128,128,128,128,0
10421,129,128,126,127,128,128,127,128,0
10425,131,127,130,128,128,128,127,127,0
10429,121,125,129,130,127,126,126,126,0
10432,124,128,128,129,126,128,127,128,0
10435,132,129,128,128,129,128,126,127,0
10439,128,126,128,126,127,128,129,128,0
10442,126,126,127,127,127,128,127,128,0
10445,126,128,127,127,128,127,129,129,0
10448,126,129,127,128,128,128,128,129,0
10451,126,126,127,128,128,127,130,126,0
10454,128,128,127,129,128,126,128,125,0
10458,126,127,128,126,128,128,127,128,0
10461,129,129,127,125,129,128,128,128,0
10464,131,128,130,127,128,128,128,128,0
10469,122,126,128,129,128,128,128,128,0
10473,127,127,128,128,127,127,127,129,0
10476,131,128,128,126,127,128,127,128,0
10480,129,128,128,128,125,128,127,127,0
10483,124,127,128,130,126,126,127,126,0
10486,131,129,128,130,126,128,125,128,0
10490,133,128,125,127,127,128,127,127,0
10493,130,128,130,128,127,128,129,126,0
10496,122,129,128,129,125,126,127,127,0
10499,124,128,127,127,130,129,128,128,0
10502,133,128,127,128,128,128,127,128,0
10504,131,128,127,128,129,128,129,128,0
10508,125,126,126,126,127,128,129,128,0
10510,127,127,127,127,127,128,127,128,0
10514,130,129,129,128,128,128,127,128,0
10517,125,127,127,126,128,128,127,128,0
10520,127,128,128,127,125,129,127,126,0
10524,123,128,128,130,126,126,127,126,0
10527,125,127,129,129,129,128,126,128,0
10531,131,128,126,126,129,128,129,128,0
10535,127,127,128,126,127,128,128,128,0
10537,126,127,128,128,127,128,128,128,0
10540,134,129,128,129,127,127,127,128,0
10544,129,128,129,128,126,127,127,127,0
10547,124,129,128,129,126,127,127,127,0
10550,124,128,127,129,126,127,128,128,0
10554,131,129,127,128,129,128,127,128,0
10558,134,128,127,127,129,128,128,128,0
10561,126,126,128,127,126,127,127,125,0
10566,127,126,127,128,126,128,126,128,0
10571,128,129,128,128,128,129,127,128,0
10577,127,128,130,129,125,129,126,127,0
10580,122,127,127,130,127,126,128,126,0
10583,124,127,129,129,125,126,126,127,0
10586,130,129,129,126,129,129,128,130,0
10589,129,127,126,126,128,128,127,127,0
10592,130,127,130,127,127,128,129,126,0
10596,123,127,128,129,127,126,127,125,0
10599,123,128,128,127,128,128,126,128,0
10602,132,129,128,126,129,128,128,128,0
10606,125,127,128,127,128,128,128,127,0
10609,127,127,127,125,129,128,128,128,0
10612,130,128,128,128,127,128,127,128,0
10618,129,128,129,129,127,128,127,128,0
10621,126,127,128,128,128,128,126,127,0
10623,127,127,128,128,129,127,127,127,0
10627,128,128,128,129,128,128,128,128,0
10631,128,127,128,130,126,126,126,126,0
10634,127,128,128,129,126,126,126,125,0
10637,125,127,128,128,127,126,128,127,0
10642,126,127,126,125,129,128,127,128,0
10645,134,129,127,127,129,128,127,128,0
10649,128,128,129,128,129,129,129,128,0
10651,128,126,129,129,128,127,127,128,0
10654,131,128,125,128,128,128,128,129,0
10657,133,129,126,128,128,128,128,128,0
10660,132,128,129,128,127,127,126,125,0
10663,124,127,128,130,127,126,128,125,0
10667,128,127,127,128,130,128,126,129,0
10671,126,129,128,127,128,127,127,128,0
10677,129,128,127,128,131,128,128,129,0
10681,127,127,127,127,124,128,128,128,0
10687,124,126,127,128,129,128,129,129,0
10691,130,128,126,127,127,128,128,128,0
10694,125,127,128,127,129,127,126,126,0
10697,126,128,127,128,127,126,127,126,0
10699,125,128,127,128,130,128,127,128,0
10706,132,128,127,128,129,129,128,129,0
10709,132,127,126,127,127,128,127,128,0
10713,131,126,130,128,128,127,127,127,0
10717,123,128,127,129,127,128,127,128,0
10721,130,129,128,126,128,127,127,127,0
10725,131,128,129,128,128,128,128,128,0
10728,127,127,127,128,129,128,129,128,0
10732,128,127,127,127,126,128,129,129,0
10735,132,128,126,127,128,128,129,129,0
10739,124,126,127,128,129,128,128,127,0
10742,125,127,128,126,129,126,128,125,0
10745,129,128,128,129,126,126,126,126,0
10748,127,129,128,128,128,128,127,128,0
10752,129,128,129,127,124,128,126,127,0
10755,120,127,127,128,127,128,129,126,0
10758,124,129,129,129,126,126,127,128,0
10761,132,128,127,127,128,127,126,128,0
10765,134,127,127,126,128,128,128,127,0
10770,131,127,131,128,126,127,128,128,0
10773,126,128,131,128,129,127,127,128,0
10776,127,128,126,127,130,128,128,129,0
10780,131,127,127,128,125,128,127,127,0
10783,126,127,127,130,128,125,127,124,0
10787,130,128,126,129,126,126,128,129,0
10792,129,128,127,127,128,128,127,128,0
10800,129,128,130,128,129,128,128,128,0
10803,127,126,127,127,127,128,126,127,0
10805,121,125,127,128,128,128,126,127,0
10809,129,129,128,128,130,128,128,128,0
10812,130,128,126,127,127,128,129,128,0
10815,121,127,127,127,128,127,130,125,0
10818,126,129,127,129,126,126,127,127,0
10820,125,128,128,126,128,128,128,128,0
10824,133,129,128,126,128,128,128,128,0
10827,124,127,127,128,126,128,127,127,0
10830,130,126,128,129,125,128,128,128,0
10833,128,128,127,127,128,128,128,129,0
10835,131,129,127,127,126,127,127,127,0
10839,127,127,128,128,126,127,127,126,0
10842,125,128,128,129,127,126,127,127,0
10846,126,128,127,128,129,128,126,128,0
10850,132,128,129,126,128,128,128,128,0
10853,130,126,126,125,127,130,126,127,0
10856,123,125,128,128,123,128,129,127,0
10860,129,128,126,127,128,128,129,129,0
10862,129,128,126,128,128,128,128,128,0
10865,127,127,127,126,128,127,127,125,0
10868,127,128,128,129,126,126,127,126,0
10871,125,128,128,129,125,127,128,129,0
10875,131,128,127,125,129,128,128,128,0
10878,133,126,129,128,123,128,129,128,0
10882,127,127,127,127,128,129,129,129,0
10884,127,127,126,126,128,128,128,128,0
10888,130,128,128,127,125,127,127,127,0
10891,132,128,130,128,127,128,127,128,0
10897,126,127,126,128,128,126,127,128,0
10903,128,128,129,128,129,128,128,127,0
10906,131,128,126,127,126,127,126,127,0
10909,130,128,130,130,128,126,127,124,0
10912,132,128,128,129,126,126,126,125,0
10915,124,128,124,127,129,128,127,128,0
10917,133,128,126,127,128,128,127,128,0
10920,131,128,126,128,131,128,129,128,0
10923,125,126,127,128,125,129,127,128,0
10925,124,127,126,127,128,128,127,128,0
10928,132,128,126,127,127,128,127,128,0
10931,130,128,131,126,124,128,129,125,0
10934,118,128,128,130,127,127,127,126,0
10937,123,128,127,129,126,127,130,129,0
10940,133,128,126,128,129,128,128,128,0
10943,131,128,127,127,127,127,130,128,0
10946,129,126,129,128,126,126,127,126,0
10949,125,126,128,127,128,128,128,128,0
10953,133,128,127,127,128,128,128,128,0
10956,131,129,129,127,127,128,127,127,0
10960,128,128,130,127,127,128,127,128,0
10963,127,125,128,126,128,128,129,129,0
10966,127,129,127,127,128,128,127,127,0
10969,129,127,128,128,128,127,127,127,0
10975,126,126,127,126,126,127,127,128,0
10979,128,125,127,128,128,127,127,128,0
10982,128,128,128,128,129,127,128,128,0
10986,125,128,127,128,125,128,128,125,0
10989,132,129,129,129,128,126,127,123,0
10992,130,128,125,128,126,127,128,128,0
11000,129,129,128,127,129,128,128,129,0
11003,130,128,126,126,127,130,128,128,0
11006,126,126,130,129,128,127,127,125,0
11010,129,128,121,125,128,128,128,129,0
11013,128,129,126,127,128,127,128,129,0
11016,131,128,127,129,128,127,126,127,0
11020,129,126,128,129,127,126,128,127,0
11024,125,128,128,129,127,127,126,128,0
11028,130,128,126,124,128,128,128,129,0
11031,134,128,128,126,128,128,127,125,0
11033,125,127,126,127,127,128,129,128,0
11037,118,126,128,128,126,126,127,127,0
11040,129,128,126,126,128,128,128,128,0
11044,135,128,129,128,130,127,128,129,0
11047,127,128,128,128,128,127,127,127,0
11050,121,125,129,130,126,127,129,129,0
11053,130,127,126,127,127,128,126,128,0
11057,135,129,129,128,128,128,126,127,0
11061,131,128,128,129,125,126,128,127,0
11064,123,128,128,129,127,126,127,126,0
11066,124,128,128,126,129,128,128,128,0
11071,132,129,126,128,130,128,128,129,0
11075,129,127,126,125,127,127,127,128,0
11078,127,126,129,126,129,127,127,128,0
11080,122,128,129,128,130,128,127,128,0
11084,129,128,127,126,129,128,129,128,0
11086,125,127,127,126,128,128,126,127,0
11089,129,126,127,129,126,126,127,125,0
11092,125,128,127,128,128,128,128,128,0
11095,135,128,129,128,128,128,127,129,0
11098,125,127,126,127,128,128,129,128,0
11103,126,127,131,127,126,126,127,126,0
11108,124,129,122,128,125,129,128,128,0
11111,131,128,126,127,128,129,128,129,0
11114,124,127,126,125,127,128,128,128,0
11117,129,127,128,128,128,128,130,126,0
11121,123,128,127,129,126,125,127,126,0
11124,126,128,127,127,128,129,128,129,0
11126,130,128,126,127,127,128,128,128,0
11132,131,126,129,126,126,128,129,127,0
11136,122,126,126,127,128,128,127,129,0
11140,131,128,128,127,128,128,127,127,0
11143,131,128,128,127,128,128,127,127,0
11145,124,128,127,129,126,126,127,126,0
11149,125,127,127,130,127,126,127,129,0
11152,131,129,127,127,128,128,128,128,0
11155,130,128,127,127,127,128,128,128,0
11157,129,126,128,126,124,127,128,128,0
11160,127,127,128,127,127,128,127,127,0
11163,130,128,127,128,129,128,128,128,0
11167,129,127,128,128,126,129,128,127,0
11170,124,128,129,129,126,126,127,126,0
11173,124,128,130,130,126,127,128,129,0
11177,131,127,129,125,129,128,128,129,0
11182,128,128,126,127,129,129,127,128,0
11184,127,127,126,126,128,128,128,128,0
11188,126,125,131,129,128,128,127,127,0
11191,128,129,126,127,128,128,127,128,0
11194,126,128,130,129,127,126,127,127,0
11197,131,128,129,127,124,127,128,127,0
11202,122,127,127,129,126,126,127,126,0
11206,124,126,128,127,128,128,125,128,0
11209,136,128,126,127,126,128,128,128,0
11215,128,128,128,126,129,128,128,128,0
11220,125,127,127,128,128,128,127,128,0
11223,130,128,129,127,127,128,127,128,0
11226,131,129,128,126,127,128,126,128,0
11229,123,127,128,130,126,126,127,126,0
11232,124,128,128,129,127,126,128,126,0
11238,125,126,128,126,129,128,128,127,0
11241,134,128,129,126,129,128,129,128,0
11245,129,126,127,127,129,128,131,127,0
11249,127,124,128,126,128,127,127,128,0
11252,129,129,129,129,129,129,126,129,0
11256,131,128,129,129,130,128,128,128,0
11260,121,127,127,129,126,126,127,126,0
11263,124,128,129,129,127,126,126,125,0
11268,125,127,127,126,129,128,127,128,0
11270,136,128,129,128,129,129,128,128,0
11274,127,129,128,128,129,129,129,129,0
11277,124,127,126,125,128,127,127,127,0
11280,125,128,126,127,129,128,128,129,0
11283,133,128,126,128,128,128,128,128,0
11287,130,126,128,126,128,128,127,126,0
11290,129,124,129,130,126,127,127,126,0
11293,125,127,127,128,128,128,127,129,0
11295,132,128,126,127,128,128,125,127,0
11299,129,128,130,127,129,128,128,127,0
11303,123,125,127,125,130,128,128,128,0
11305,122,126,127,127,126,128,128,129,0
11309,131,129,128,128,129,129,127,128,0
11317,124,128,129,127,125,126,128,126,0
11322,125,128,127,129,126,126,127,126,0
11328,125,127,127,129,126,128,127,128,0
11331,129,128,126,127,128,128,128,128,0
11335,131,126,128,128,128,128,128,127,0
11338,125,127,128,127,131,130,129,128,0
11341,124,127,128,127,125,128,128,128,0
11345,130,128,125,128,128,127,127,128,0
11348,133,127,128,128,124,128,128,128,0
11351,119,127,130,130,126,127,128,127,0
11354,122,128,127,129,127,126,128,129,0
11358,132,129,126,128,129,128,128,128,0
11361,132,128,127,129,129,128,129,128,0
11364,126,125,130,128,129,127,127,127,0
11368,125,126,129,127,127,127,125,128,0
11371,133,128,131,129,128,129,127,128,0
11374,128,128,127,125,129,127,128,126,0
11376,124,128,128,129,126,127,127,127,0
11379,124,128,128,129,126,127,128,129,0
11382,133,128,127,128,128,128,127,128,0
11385,132,128,127,126,130,128,128,128,0
11388,121,126,126,128,129,128,129,128,0
11392,127,126,126,127,128,128,128,129,0
11396,129,128,127,127,127,128,128,128,0
11399,129,128,127,126,126,128,126,127,0
11403,123,128,130,128,127,128,127,128,0
11406,125,125,126,128,129,128,128,128,0
11409,124,128,127,128,127,128,128,128,0
11412,128,128,127,128,128,127,129,126,0
11416,126,129,127,129,127,126,128,125,0
11420,126,129,127,129,127,127,130,129,0
11425,129,128,126,126,127,128,127,128,0
11430,132,128,129,127,127,128,127,127,0
11433,132,127,126,126,129,128,128,128,0
11436,123,126,129,128,128,127,128,128,0
11439,127,127,127,126,127,128,127,128,0
11442,130,128,127,127,126,127,126,127,0
11446,127,127,129,128,128,129,129,125,0
11448,130,128,127,130,128,126,127,127,0
11452,126,128,126,125,128,128,127,128,0
11456,130,128,128,127,128,128,127,127,0
11462,127,126,130,128,130,128,127,128,0
11464,120,127,127,127,128,128,129,129,0
11467,126,128,127,128,126,128,128,129,0
11470,131,128,128,128,126,127,128,128,0
11472,128,126,129,131,127,126,127,126,0
11475,125,128,128,129,127,126,126,126,0
11479,124,125,127,126,128,128,127,128,0
11483,132,128,129,127,129,128,127,129,0
11486,128,128,128,128,128,128,129,128,0
11490,122,127,130,126,128,128,128,128,0
11493,128,128,127,127,126,128,127,129,0
11495,131,128,126,127,128,127,127,128,0
11498,129,126,129,128,123,128,128,127,0
11501,132,127,126,129,126,126,127,127,0
11504,122,128,128,129,126,126,127,129,0
11506,134,129,128,126,129,128,127,128,0
11510,132,129,128,127,129,128,127,127,0
11513,124,126,129,129,126,126,127,126,0
11517,125,128,127,127,128,128,127,128,0
11520,133,129,127,128,128,128,128,128,0
11525,134,128,130,128,127,128,128,127,0
11530,125,125,128,128,128,128,127,127,0
11535,122,127,129,128,129,128,128,129,0
11538,131,128,125,127,128,127,126,128,0
11542,133,128,129,128,127,128,130,127,0
11545,127,127,128,129,127,126,127,125,0
11548,122,127,128,126,127,128,127,128,0
11551,132,128,126,128,129,129,127,128,0
11554,129,128,126,126,129,128,129,128,0
11557,125,125,129,127,126,128,127,127,0
11560,128,128,128,127,128,129,127,128,0
11563,131,129,129,127,128,128,127,128,0
11565,126,128,127,126,128,128,129,127,0
11570,123,128,128,129,127,126,127,126,0
11572,123,128,128,129,127,126,127,129,0
11575,132,128,127,126,129,128,128,128,0
11578,133,127,127,126,128,128,126,127,0
11581,127,125,127,127,129,127,128,128,0
11584,122,128,127,128,129,128,128,128,0
11588,129,128,126,126,129,128,129,128,0
11591,127,126,127,128,127,128,128,128,0
11594,127,126,130,131,126,126,128,124,0
11597,128,128,126,128,127,127,127,128,0
11600,130,127,126,126,128,127,127,128,0
11606,133,128,127,126,129,128,131,129,0
11611,127,126,128,125,126,128,128,127,0
11614,126,127,129,128,127,127,127,127,0
11622,130,128,128,127,127,127,127,128,0
11631,128,127,129,130,128,128,128,128,0
11626,131,128,127,127,128,127,128,129,0
11639,125,126,129,130,127,126,126,126,0
11643,124,128,128,130,126,126,127,128,0
11647,131,128,127,126,129,129,128,129,0
11650,126,127,127,127,129,128,128,128,0
11653,117,127,126,129,126,126,128,126,0
11657,127,129,127,128,129,128,127,128,0
11660,131,129,129,125,129,128,127,128,0
11663,130,126,130,127,128,127,127,128,0
11667,127,125,128,127,128,128,127,127,0
11670,131,128,128,127,128,128,127,128,0
11674,130,128,127,128,129,128,128,128,0
11677,126,126,127,128,126,126,127,126,0
11680,125,128,128,128,127,127,127,127,0
11683,127,128,128,129,129,128,128,128,0
11686,136,128,127,127,128,128,127,127,0
11689,131,127,128,127,127,127,127,128,0
11692,124,128,129,127,128,127,128,127,0
11696,129,128,127,127,128,128,126,128,0
11699,134,129,128,128,128,127,129,128,0
11703,128,128,126,127,126,128,128,129,0
11706,125,126,127,129,126,127,128,127,0
11710,125,127,127,129,129,128,127,128,0
11713,134,128,132,127,128,128,127,128,0
11716,128,129,126,128,129,128,129,127,0
11720,126,124,130,127,127,128,129,127,0
11723,131,127,127,128,129,128,128,129,0
11725,131,128,127,128,126,127,126,128,0
11730,129,128,129,129,127,126,127,126,0
11733,125,127,128,129,127,127,128,126,0
11738,124,127,128,128,129,128,127,128,0
11743,133,127,127,128,128,129,127,128,0
11748,132,128,130,128,128,127,127,127,0
11751,125,125,127,128,129,127,130,127,0
11754,123,128,128,128,129,128,128,128,0
11757,130,128,126,127,128,128,126,127,0
11760,128,128,129,126,128,128,128,125,0
11763,127,128,128,129,127,126,127,126,0
11766,123,128,128,128,127,127,128,129,0
11770,135,128,128,126,129,128,128,128,0
11775,130,128,126,126,128,128,128,129,0
11780,126,128,127,127,127,128,128,126,0
11782,126,127,127,128,132,128,128,128,0
11785,132,128,126,127,128,127,127,128,0
11790,129,128,128,127,128,127,127,129,0
11793,128,127,128,128,125,127,127,126,0
11796,123,128,128,129,126,126,127,127,0
11799,131,128,127,126,129,128,127,128,0
11803,129,128,126,127,129,127,127,127,0
11807,130,126,128,127,123,128,128,128,0
11810,120,126,128,127,128,128,127,128,0
11813,134,129,129,128,128,128,127,128,0
11818,130,128,127,128,128,128,129,125,0
11821,123,128,129,130,127,126,127,126,0
11824,126,128,127,129,127,127,127,127,0
11828,123,127,126,127,129,129,128,128,0
11831,132,128,128,126,129,128,127,127,0
11835,130,125,129,127,128,128,127,128,0
11839,123,126,126,126,128,128,128,128,0
11844,131,128,128,127,128,128,126,128,0
11850,128,129,130,128,128,127,126,127,0
11854,126,127,129,128,126,128,127,128,0
11857,128,127,130,129,125,126,126,126,0
11860,128,129,127,130,125,128,129,129,0
11863,134,128,127,127,128,128,125,127,0
11867,129,128,128,128,123,128,127,125,0
11870,125,128,127,129,127,126,127,126,0
11873,126,129,126,127,129,128,127,128,0
11877,132,129,129,126,130,129,128,128,0
11880,124,127,129,128,129,128,129,128,0
11883,127,126,129,126,131,128,129,129,0
11887,130,128,127,127,127,128,129,129,0
11890,131,128,126,127,127,128,127,128,0
11893,129,127,127,127,127,126,128,126,0
11897,123,127,128,129,126,126,128,126,0
11903,132,127,127,127,128,128,127,128,0
11900,125,129,128,126,128,128,128,128,0
11906,129,128,129,128,131,128,129,128,0
11912,129,127,128,128,129,129,129,129,0
11914,130,127,126,127,129,128,128,129,0
11917,131,128,128,127,127,128,126,128,0
11925,127,128,129,128,124,127,126,127,0
11931,116,129,128,129,126,126,127,127,0
11934,124,127,128,126,128,128,128,128,0
11938,134,128,128,126,130,129,127,129,0
11941,123,127,130,126,127,128,127,128,0
11945,119,127,127,126,128,128,129,128,0
11948,125,126,126,126,129,128,129,128,0
11951,133,129,126,127,127,127,127,127,0
11957,127,129,128,129,126,127,127,126,0
11961,124,128,128,130,127,126,127,126,0
11964,124,128,128,128,128,129,127,128,0
11968,133,129,127,127,127,128,126,128,0
11971,132,128,128,126,126,128,128,128,0
11974,128,127,128,127,127,127,130,127,0
11977,130,128,129,126,130,128,128,129,0
11980,125,128,127,126,129,128,128,128,0
11984,129,127,126,127,126,128,129,128,0
11987,126,127,126,128,128,128,128,126,0
11990,124,127,127,130,127,126,127,126,0
11993,128,129,127,129,130,128,127,128,0
11995,134,127,126,127,125,128,128,128,0
11999,130,124,129,129,127,127,127,126,0
12002,122,128,127,130,126,128,127,128,0
12005,131,128,128,126,130,128,129,128,0
12008,130,128,127,125,129,128,129,128,0
12012,130,125,129,127,129,128,128,128,0
12015,123,126,127,127,128,128,128,129,0
12018,129,129,126,127,128,128,128,128,0
12021,131,127,128,128,124,127,127,127,0
12024,132,126,128,127,127,128,127,127,0
12028,121,129,126,129,128,127,126,127,0
12032,126,129,126,128,128,128,128,128,0
12034,127,128,126,127,126,128,127,128,0
12037,119,127,128,128,127,126,127,125,0
12041,122,127,129,128,127,127,127,129,0
12045,132,128,126,128,129,128,129,129,0
12049,131,127,126,125,129,128,129,129,0
12052,127,127,127,126,127,128,127,127,0
12056,127,125,129,128,128,128,127,128,0
12062,130,128,129,125,128,128,128,129,0
12065,129,128,126,128,126,128,128,128,0
12069,124,127,127,130,127,126,127,126,0
12074,123,128,128,129,127,126,127,125,0
12077,129,128,127,125,128,128,128,129,0
12080,130,128,126,126,128,128,128,128,0
12083,130,127,128,127,128,127,126,125,0
12088,118,127,127,128,126,128,127,127,0
12091,131,128,129,127,130,128,127,128,0
12093,129,128,128,127,127,128,127,128,0
12096,126,127,128,127,127,127,127,127,0
12099,126,126,130,127,126,128,128,128,0
12102,128,129,128,127,126,128,127,128,0
12106,132,128,129,126,123,128,127,128,0
12110,129,127,128,130,127,127,128,124,0
12113,130,128,127,130,128,126,128,126,0
12117,123,126,129,125,128,128,127,128,0
12120,130,129,126,126,128,127,127,128,0
12124,129,127,127,126,126,128,126,128,0
12127,122,127,126,127,127,130,129,125,0
12130,125,127,127,127,126,128,127,128,0
12132,131,128,129,128,127,127,126,127,0
12135,127,128,128,128,127,127,129,126,0
12138,125,128,129,130,127,126,126,125,0
12142,123,128,127,127,123,128,129,129,0
12145,130,127,126,126,128,128,127,127,0
12148,132,128,128,126,128,128,127,128,0
12151,127,127,126,127,129,130,127,127,0
12155,119,126,128,126,129,128,129,128,0
12159,130,129,128,128,127,127,128,128,0
12165,132,128,130,127,128,128,126,127,0
12171,128,126,129,128,125,127,128,127,0
12174,132,128,127,127,129,128,128,128,0
12177,130,129,128,128,126,128,126,128,0
12180,132,128,129,128,125,129,127,127,0
12183,126,128,128,129,127,126,129,126,0
12185,125,128,128,128,127,127,127,128,0
12193,135,128,126,126,131,128,128,128,0
12196,130,128,128,127,126,128,129,126,0
12199,132,127,129,127,126,127,126,127,0
12201,128,126,128,128,127,128,126,129,0
12204,128,130,129,127,128,127,126,128,0
12207,128,129,130,128,128,128,127,126,0
12210,128,129,129,129,127,126,127,125,0
12213,124,127,127,129,127,127,125,129,0
12216,133,128,126,126,129,129,128,128,0
12220,132,128,127,127,128,128,127,127,0
12226,127,127,128,126,127,127,127,127,0
12229,123,125,129,126,128,128,128,127,0
12232,129,128,128,127,129,128,128,128,0
12251,128,128,126,127,127,128,127,127,0
12256,126,127,129,129,125,127,128,127,0
12260,127,128,128,128,126,128,127,128,0
12263,129,128,129,129,129,128,129,128,0
12267,133,127,128,128,129,126,128,127,0
12270,127,128,129,130,127,126,128,126,0
12274,128,129,126,130,128,126,126,127,0
12277,124,127,127,125,128,128,127,128,0
12282,131,129,125,126,129,128,128,128,0
12286,126,126,127,126,127,127,127,128,0
12289,128,127,129,129,126,126,127,126,0
12293,125,128,130,125,129,128,126,128,0
12296,132,129,126,127,128,128,127,128,0
12299,129,127,127,127,128,127,126,127,0
12302,123,128,127,129,127,126,127,127,0
12309,132,128,126,128,129,128,129,128,0
12305,123,127,127,127,128,128,127,128,0
12311,128,125,127,128,128,128,129,128,0
12315,124,126,127,128,128,128,128,129,0
12319,126,129,126,127,127,128,126,129,0
12322,132,128,128,127,126,127,127,128,0
12325,130,127,126,129,126,126,127,126,0
12330,124,127,129,129,126,126,127,127,0
12333,124,126,126,125,130,129,127,128,0
12336,132,128,130,127,128,128,127,128,0
12339,129,127,128,128,129,128,129,128,0
12342,117,126,127,127,127,127,128,128,0
12346,128,128,127,127,128,128,127,128,0
12349,130,128,129,127,128,127,128,129,0
12352,122,127,128,128,126,128,127,128,0
12355,132,125,128,128,123,128,128,128,0
12358,121,127,126,128,128,128,129,129,0
12370,125,128,126,128,126,128,126,128,0
12374,131,128,129,128,127,127,126,127,0
12377,124,127,129,128,129,127,128,128,0
12381,125,127,127,127,128,128,128,128,0
12384,129,128,125,127,127,127,127,127,0
12387,126,127,127,127,127,126,129,124,0
12391,134,129,127,129,128,126,127,124,0
12396,130,129,128,128,125,130,130,129,0
12403,132,127,126,127,131,128,129,129,0
12407,130,128,126,126,126,127,127,128,0
12415,126,126,128,127,126,127,127,126,0
12418,123,128,127,129,127,127,128,129,0
12422,134,128,127,125,129,128,127,128,0
12425,130,127,128,127,126,127,126,127,0
12428,127,126,128,128,127,126,128,126,0
12432,123,128,128,129,125,128,128,129,0
12435,130,128,126,126,128,128,127,129,0
12438,131,127,127,127,127,128,127,128,0
12441,126,125,127,128,125,126,127,126,0
12444,121,127,128,128,125,128,126,127,0
12448,131,129,127,128,129,128,128,129,0
12456,129,127,126,126,128,127,127,127,0
12460,125,127,128,129,129,128,129,128,0
12463,123,127,127,127,127,127,126,128,0
12467,129,128,128,126,129,128,127,128,0
12470,125,128,127,128,128,127,128,127,0
12473,130,129,126,129,127,126,127,125,0
12476,122,127,128,129,126,127,131,129,0
12479,127,128,127,125,129,128,128,128,0
12483,130,127,127,125,128,128,130,128,0
12486,123,126,127,127,127,128,128,128,0
12489,124,126,127,127,126,128,126,128,0
12499,130,128,128,128,128,128,126,127,0
12503,131,128,129,127,129,128,127,127,0
12511,125,127,128,127,125,127,128,128,0
12506,118,129,130,127,126,127,127,127,0
12515,131,128,128,128,126,127,126,128,0
12520,131,128,129,128,128,128,128,128,0
12523,126,127,128,127,128,128,126,126,0
12527,129,128,127,129,128,126,128,127,0
12534,124,127,127,128,129,127,128,129,0
12538,132,129,126,128,128,128,128,129,0
12541,124,127,127,128,124,128,127,127,0
12545,128,125,126,127,126,127,127,128,0
12548,127,127,126,127,129,128,127,128,0
12552,129,128,126,127,128,128,128,128,0
12555,124,128,128,128,126,128,129,127,0
