Start Recording
23,124,130,127,129,123,128,125,127,0
28,131,125,128,128,133,127,128,131,0
32,129,122,128,129,136,127,127,129,0
36,123,136,124,128,127,128,126,127,0
40,130,126,132,125,122,128,129,126,0
44,129,124,129,126,120,127,131,127,0
47,129,130,126,128,125,127,131,128,0
51,129,125,128,128,126,127,132,128,0
54,130,131,129,129,123,128,128,127,0
58,128,128,128,128,123,127,128,126,0
61,126,126,126,128,125,128,129,129,0
65,129,127,127,127,134,127,131,128,0
73,130,132,126,128,133,128,125,126,0
68,125,128,129,128,127,128,129,127,0
77,128,130,128,128,137,126,125,130,0
80,120,122,128,129,138,127,131,128,0
101,130,128,128,128,122,128,127,127,0
106,134,121,129,127,138,129,123,127,0
110,124,121,131,128,127,129,127,127,0
113,132,135,128,127,127,128,128,127,0
117,130,127,129,128,125,128,124,128,0
120,129,133,125,128,129,128,128,130,0
123,127,126,120,128,137,126,125,129,0
125,122,123,130,124,123,128,128,128,0
128,128,132,131,126,123,128,128,127,0
131,132,128,124,126,131,128,128,127,0
134,125,127,127,128,126,128,129,129,0
158,126,128,129,126,128,129,127,129,0
164,129,129,129,128,134,127,129,128,0
169,131,126,130,128,126,128,124,127,0
173,129,128,128,126,126,128,126,130,0
177,125,126,126,129,136,126,127,127,0
226,135,126,129,126,124,128,131,127,0
233,132,122,127,127,122,127,131,128,0
237,127,133,124,124,125,128,127,127,0
240,129,128,130,126,135,128,128,127,0
243,131,130,129,127,125,128,132,128,0
247,132,129,130,127,126,127,131,128,0
250,125,125,128,127,124,128,126,127,0
254,129,126,127,129,130,128,126,127,0
257,127,128,127,127,124,128,126,127,0
261,125,123,130,126,128,128,127,128,0
266,119,128,126,130,139,126,130,131,0
270,123,126,125,128,134,126,129,130,0
273,123,137,125,127,122,128,128,127,0
277,131,129,128,127,120,127,130,128,0
280,128,127,127,125,129,127,129,127,0
285,130,126,127,127,122,127,127,127,0
287,130,129,129,128,137,127,127,127,0
290,124,127,127,128,124,127,127,126,0
293,128,130,126,126,125,128,124,127,0
297,122,124,127,129,137,129,124,127,0
300,134,122,129,124,124,128,127,127,0
302,133,137,125,126,122,128,129,127,0
305,134,123,131,133,124,127,129,127,0
309,127,132,127,128,127,128,125,128,0
312,128,130,127,126,128,127,126,126,0
316,123,127,125,130,139,125,129,128,0
319,125,124,128,130,136,126,128,129,0
323,124,124,127,127,125,129,126,127,0
326,124,135,127,128,124,128,133,128,0
329,127,133,125,125,122,127,129,127,0
332,134,128,130,128,122,128,129,127,0
335,129,125,128,127,125,128,127,128,0
339,124,124,128,129,123,128,123,127,0
342,129,126,130,127,127,128,127,128,0
345,129,127,128,128,129,128,124,126,0
347,123,126,127,127,128,128,125,126,0
350,122,127,128,128,127,127,129,128,0
353,133,128,128,128,135,128,124,127,0
356,126,125,124,129,135,125,130,130,0
361,126,126,124,128,136,127,128,129,0
365,126,125,128,127,122,128,128,126,0
370,127,129,130,128,123,127,131,127,0
373,128,126,129,126,124,129,127,129,0
375,126,134,129,128,120,128,126,126,0
380,124,127,127,126,124,127,130,128,0
383,127,129,132,125,124,127,127,127,0
385,131,125,129,129,124,128,130,126,0
389,130,129,126,128,130,128,125,128,0
391,130,126,128,126,138,128,129,128,0
394,128,131,129,128,129,128,126,128,0
397,122,127,127,128,127,128,126,126,0
400,130,123,128,128,127,127,128,126,0
403,128,115,127,130,137,125,126,129,0
407,122,134,123,127,128,129,129,129,0
410,127,133,127,127,123,128,128,127,0
413,129,130,125,128,129,128,128,127,0
415,127,127,130,127,130,128,124,129,0
419,131,127,130,124,126,128,125,128,0
422,129,128,129,128,124,128,126,126,0
425,125,125,127,128,126,129,125,127,0
428,127,125,128,129,130,127,130,128,0
431,124,127,128,128,124,126,123,128,0
434,129,128,127,126,127,127,124,127,0
437,129,126,128,128,127,129,124,126,0
440,129,124,126,129,136,127,128,130,0
443,127,128,126,129,135,126,130,130,0
446,126,128,127,129,133,126,129,128,0
449,123,128,127,128,120,127,128,124,0
452,133,123,129,127,121,128,125,127,0
459,126,131,129,127,123,129,130,129,0
462,125,134,128,129,122,127,127,127,0
465,131,130,127,127,125,127,129,127,0
468,129,127,128,128,128,128,125,127,0
471,128,127,127,128,130,128,125,126,0
473,125,128,127,128,128,127,129,128,0
477,127,128,128,126,134,128,128,128,0
480,126,127,128,127,126,128,125,129,0
484,118,129,130,128,126,128,125,126,0
487,125,128,127,126,126,128,123,127,0
492,128,128,129,127,123,127,128,129,0
495,123,125,125,128,134,126,129,130,0
498,125,128,126,129,134,125,131,130,0
501,123,129,128,128,123,128,125,126,0
503,133,127,128,125,121,128,125,127,0
506,133,127,127,127,122,128,128,127,0
510,128,129,127,127,124,128,129,127,0
514,127,129,128,126,130,127,125,126,0
517,127,128,127,126,125,128,130,128,0
520,121,127,128,128,122,128,125,126,0
523,126,128,128,127,130,127,130,128,0
526,127,127,127,127,133,127,131,128,0
529,126,127,127,128,130,128,127,129,0
532,119,127,125,130,134,124,127,130,0
534,122,127,126,129,135,126,131,127,0
537,135,130,127,128,121,128,130,127,0
540,133,124,131,126,120,128,127,126,0
543,136,123,128,127,124,128,127,125,0
546,123,126,128,128,123,127,128,128,0
550,126,130,128,127,123,128,125,127,0
557,130,130,126,125,127,128,128,127,0
560,131,126,128,127,129,128,123,126,0
563,121,129,128,128,127,127,126,129,0
566,123,130,129,128,125,127,127,128,0
569,125,127,127,128,129,128,128,127,0
572,128,126,128,128,126,127,127,128,0
574,127,129,127,127,127,127,124,129,0
577,122,127,128,127,124,128,128,128,0
580,120,129,127,126,125,128,127,127,0
583,130,126,128,126,128,128,129,127,0
586,120,126,126,129,136,126,128,130,0
590,124,128,126,129,134,126,130,129,0
593,127,127,126,128,132,126,129,127,0
596,123,127,128,127,119,129,126,127,0
599,133,127,129,127,118,128,130,127,0
602,134,129,128,128,122,128,129,127,0
605,133,128,128,125,119,128,127,127,0
609,132,127,128,127,124,128,123,125,0
612,127,128,128,126,121,128,128,126,0
615,122,129,128,126,135,128,129,127,0
620,122,128,127,128,124,127,126,126,0
623,126,125,127,128,125,127,128,127,0
626,126,127,129,128,126,128,126,128,0
629,127,129,128,127,125,128,128,128,0
632,129,127,124,128,137,126,129,131,0
635,124,126,126,128,135,126,129,130,0
638,124,128,127,127,123,127,131,127,0
641,131,129,128,125,125,128,130,128,0
644,132,129,128,127,129,128,125,127,0
648,132,128,127,126,122,128,129,126,0
654,128,127,129,127,124,127,131,128,0
658,123,129,128,128,126,127,127,128,0
661,132,127,128,128,125,128,123,128,0
664,133,123,128,128,127,128,127,129,0
667,128,130,127,127,132,127,125,128,0
670,129,129,128,127,130,128,125,127,0
673,129,129,127,126,128,127,128,130,0
675,126,127,126,129,138,127,128,128,0
680,124,126,125,128,132,128,129,127,0
685,129,128,128,126,123,128,128,127,0
687,132,129,128,128,123,128,124,126,0
690,127,127,127,128,135,128,127,126,0
693,128,127,127,128,125,129,123,128,0
697,129,128,128,128,125,128,128,129,0
701,122,129,127,126,128,127,131,129,0
704,119,128,126,129,139,126,128,129,0
710,127,123,125,128,133,127,127,129,0
713,125,126,128,125,120,129,129,128,0
716,122,130,129,128,125,128,126,126,0
720,129,128,129,127,125,127,131,127,0
723,128,126,127,126,124,128,126,126,0
726,124,128,127,126,122,127,131,127,0
729,128,129,127,126,122,128,129,126,0
732,126,128,128,126,126,128,131,128,0
736,124,126,128,127,124,129,125,127,0
741,121,127,127,129,124,128,124,128,0
744,130,128,127,128,124,128,125,129,0
748,120,126,127,128,121,127,130,127,0
753,127,127,128,126,126,127,129,128,0
758,126,129,130,126,124,128,129,127,0
764,126,130,127,129,138,127,132,130,0
767,123,127,126,128,138,125,130,130,0
770,125,127,125,129,135,127,125,126,0
773,132,126,128,127,123,127,129,128,0
777,131,129,128,127,123,128,127,126,0
780,129,127,130,128,127,128,128,126,0
783,127,126,127,128,125,127,128,128,0
786,131,125,128,128,126,128,125,127,0
789,123,129,129,126,129,127,129,128,0
792,121,129,127,127,129,129,122,128,0
795,126,128,127,128,133,128,125,127,0
799,124,128,128,128,122,128,128,128,0
802,129,130,129,128,128,128,126,128,0
806,128,128,128,127,125,127,126,130,0
810,126,124,126,129,136,127,125,129,0
814,123,127,126,128,136,126,130,129,0
818,133,129,128,127,120,128,126,126,0
821,135,126,130,125,121,128,128,127,0
825,135,128,128,125,123,127,131,127,0
828,133,124,129,127,125,128,126,127,0
833,126,127,129,128,126,128,126,126,0
836,130,130,128,128,122,128,124,128,0
838,123,126,125,129,135,127,126,129,0
842,126,127,126,128,128,128,131,126,0
845,132,129,128,126,120,128,128,126,0
848,131,129,129,128,121,127,131,128,0
851,123,127,128,127,122,128,126,126,0
853,126,127,129,128,128,128,130,127,0
859,126,129,128,128,125,128,131,128,0
864,130,128,128,127,125,129,125,128,0
867,128,127,129,126,130,128,127,127,0
870,129,126,128,128,129,128,130,127,0
873,123,128,128,126,126,128,123,127,0
876,128,127,129,127,123,128,128,126,0
880,129,122,127,129,138,127,127,131,0
883,128,126,124,129,137,126,125,128,0
886,132,129,127,128,121,127,128,126,0
890,130,128,129,128,122,128,130,127,0
893,130,124,127,125,127,129,127,128,0
896,124,128,126,127,124,128,128,126,0
899,124,126,129,128,129,127,131,129,0
902,132,129,129,126,127,129,124,127,0
906,126,127,126,126,122,128,129,128,0
909,124,126,128,128,132,129,124,127,0
913,124,128,129,126,126,127,128,129,0
917,127,129,127,128,133,128,131,129,0
922,123,124,127,129,137,126,129,129,0
928,125,128,126,128,134,127,126,129,0
931,125,127,126,129,122,128,127,126,0
934,130,129,128,128,123,128,125,128,0
939,130,130,129,125,121,128,127,126,0
942,132,128,128,128,119,128,130,127,0
945,132,129,128,127,123,128,127,126,0
949,132,128,127,126,122,128,124,126,0
952,124,127,126,127,125,128,127,126,0
955,122,124,127,130,137,127,128,130,0
958,121,127,126,129,136,127,127,127,0
961,130,129,128,127,131,128,125,128,0
968,132,127,128,128,124,128,129,129,0
971,123,127,127,129,137,126,129,128,0
974,124,127,130,128,120,128,128,125,0
977,128,128,129,129,121,127,127,125,0
980,130,127,127,129,138,127,122,127,0
983,125,134,127,127,121,127,130,128,0
986,127,128,128,127,123,127,128,128,0
990,130,130,130,126,126,128,123,127,0
993,127,128,127,127,128,127,126,127,0
996,122,128,127,128,128,127,127,128,0
999,126,127,129,127,124,128,127,128,0
1002,121,129,128,128,134,127,129,129,0
1006,119,127,127,128,129,128,125,128,0
1009,128,127,127,126,124,127,131,128,0
1013,130,127,129,128,126,128,128,128,0
1015,129,129,129,126,126,128,130,128,0
1019,128,128,129,126,124,127,128,128,0
1021,120,127,124,129,134,125,128,130,0
1024,124,126,126,129,135,126,128,127,0
1027,130,128,128,127,127,127,131,127,0
1030,130,127,128,128,122,128,127,127,0
1033,133,129,127,126,122,128,128,126,0
1036,127,125,129,128,125,127,128,127,0
1041,126,129,128,128,127,127,130,128,0
1044,129,127,128,127,128,128,123,128,0
1047,129,127,128,128,128,128,127,128,0
1050,124,126,128,127,130,127,128,128,0
1053,120,128,128,128,127,128,131,128,0
1056,129,127,129,129,134,127,128,130,0
1062,121,128,125,129,136,127,129,129,0
1067,122,127,125,129,133,127,131,127,0
1070,131,127,128,127,123,128,132,128,0
1073,130,128,127,125,120,128,132,126,0
1076,133,127,127,125,121,128,131,127,0
1081,119,127,129,126,128,129,124,127,0
1084,132,129,128,126,123,128,128,128,0
1087,133,128,127,128,129,128,130,128,0
1090,123,127,128,127,135,128,125,127,0
1093,127,126,128,128,129,127,128,127,0
1096,131,127,130,128,129,128,126,128,0
1099,136,127,130,128,124,128,127,127,0
1103,121,130,127,127,131,128,127,127,0
1106,127,127,128,129,136,126,132,131,0
1109,125,127,126,129,135,125,125,127,0
1113,132,129,128,127,121,128,126,126,0
1120,127,128,128,126,120,128,131,126,0
1122,124,127,127,126,127,128,131,128,0
1126,131,128,127,128,124,127,130,127,0
1130,132,129,130,129,130,129,124,128,0
1133,118,127,129,127,126,128,127,128,0
1136,127,126,126,129,137,126,126,130,0
1142,125,126,126,128,123,128,131,128,0
1145,128,130,127,126,123,128,127,127,0
1149,125,127,126,128,129,130,123,128,0
1153,134,126,127,126,125,129,123,126,0
1156,122,127,128,128,122,128,124,128,0
1159,127,130,126,126,126,128,131,128,0
1163,124,127,127,129,129,128,125,129,0
1170,121,125,128,128,125,128,123,127,0
1174,127,128,128,126,125,128,128,128,0
1177,123,130,128,128,127,127,130,128,0
1180,128,127,128,128,128,129,128,130,0
1182,129,125,123,129,137,125,128,129,0
1187,123,127,126,128,122,128,131,126,0
1191,132,127,129,127,122,128,130,126,0
1194,129,127,127,127,126,128,126,126,0
1199,127,128,126,128,124,127,130,127,0
1202,133,127,131,126,121,128,126,126,0
1205,127,129,129,128,126,128,128,128,0
1209,132,129,127,128,134,128,126,128,0
1213,132,126,129,128,129,128,125,126,0
1216,131,125,128,126,123,127,129,128,0
1219,131,133,127,127,129,129,124,129,0
1222,129,129,127,129,128,128,128,130,0
1228,120,125,126,129,137,127,125,129,0
1232,125,126,127,126,123,128,127,127,0
1235,134,129,130,126,124,127,128,126,0
1240,125,128,128,128,126,128,129,126,0
1244,132,127,127,128,125,127,130,128,0
1247,128,125,128,128,131,128,125,128,0
1251,132,129,130,127,127,127,128,127,0
1254,123,128,127,128,128,127,129,127,0
1257,121,126,127,129,140,126,128,131,0
1259,127,126,125,129,137,125,126,131,0
1263,124,127,127,127,125,128,127,127,0
1266,128,129,129,128,124,128,123,128,0
1271,133,124,128,127,128,128,127,126,0
1276,126,127,127,128,128,128,131,128,0
1280,130,129,128,128,124,128,128,128,0
1283,129,129,127,128,124,129,124,127,0
1287,126,127,130,126,127,128,123,127,0
1290,131,126,128,128,127,128,127,126,0
1293,128,128,130,128,123,127,127,127,0
1296,126,127,127,127,123,127,127,127,0
1300,125,128,125,129,137,126,126,128,0
1303,123,125,126,129,125,128,127,125,0
1306,133,124,129,126,123,128,126,128,0
1310,126,132,126,127,128,128,129,128,0
1313,123,128,128,127,128,128,127,127,0
1316,123,124,126,129,123,128,124,126,0
1319,132,130,128,126,125,128,125,126,0
1322,126,126,127,127,120,127,126,127,0
1325,127,126,129,128,124,127,124,124,0
1328,126,127,125,128,134,125,129,130,0
1331,122,129,126,128,122,128,131,127,0
1334,130,129,128,126,123,128,126,127,0
1337,133,127,127,128,121,128,129,127,0
1340,129,127,127,126,125,128,130,128,0
1343,128,128,129,128,123,127,126,127,0
1346,127,129,127,127,125,127,132,128,0
1350,125,127,128,128,131,127,128,127,0
1353,119,126,125,129,136,126,126,127,0
1357,131,129,127,128,125,127,131,129,0
1360,118,128,128,128,122,127,127,127,0
1362,134,128,129,127,125,128,127,126,0
1368,125,127,127,128,135,127,125,127,0
1374,126,127,128,127,124,127,129,128,0
1377,122,129,127,126,124,128,129,128,0
1381,129,127,127,128,130,127,125,127,0
1383,122,126,126,129,136,126,130,130,0
1386,126,127,127,128,133,126,132,130,0
1390,121,129,128,127,120,128,130,126,0
1393,131,127,129,127,119,128,126,126,0
1397,127,129,127,128,126,127,128,126,0
1400,126,128,128,127,122,128,128,128,0
1403,132,129,129,128,125,128,127,128,0
1406,130,128,129,129,127,128,129,128,0
1409,121,126,127,130,136,127,126,130,0
1413,123,126,126,128,119,127,132,127,0
1416,129,129,128,126,124,128,124,127,0
1419,133,127,130,128,130,128,124,127,0
1422,133,126,129,129,128,128,122,128,0
1425,122,130,127,128,123,128,124,127,0
1428,121,129,128,129,131,128,129,127,0
1431,124,127,127,128,141,127,127,129,0
1435,125,125,126,129,134,126,129,130,0
1438,127,127,128,127,121,128,125,127,0
1441,132,130,130,126,122,127,129,128,0
1443,130,128,127,126,123,128,130,128,0
1447,123,126,126,126,124,128,130,127,0
1450,126,128,128,126,123,127,131,128,0
1453,128,126,128,127,122,127,127,128,0
1457,128,127,127,127,129,128,125,126,0
1460,122,127,127,126,122,128,126,128,0
1465,127,125,127,128,138,127,130,128,0
1471,130,129,128,128,125,128,124,128,0
1475,128,130,127,126,130,128,122,128,0
1478,123,126,123,128,136,126,128,129,0
1481,122,126,126,129,126,128,129,128,0
1484,132,128,128,128,124,128,129,126,0
1487,129,129,127,128,125,128,128,126,0
1490,124,127,127,128,122,127,129,127,0
1493,129,127,127,125,122,128,125,127,0
1496,129,128,127,126,128,127,128,128,0
1500,130,128,128,127,129,128,125,127,0
1503,123,127,127,129,130,128,126,128,0
1506,121,124,127,128,126,128,124,127,0
1509,129,129,130,126,129,128,124,127,0
1512,132,129,129,128,129,128,125,129,0
1515,125,126,125,129,137,126,129,129,0
1517,125,126,126,129,134,128,133,126,0
1520,137,129,129,125,118,127,131,126,0
1525,129,129,128,126,122,128,127,127,0
1528,133,127,129,128,127,128,125,125,0
1532,126,126,130,128,133,129,124,129,0
1535,123,131,127,127,123,128,125,127,0
1540,130,129,126,128,129,127,122,129,0
1543,120,127,126,129,136,127,128,127,0
1546,132,128,129,129,125,128,127,125,0
1550,129,127,128,128,121,128,125,126,0
1553,129,128,126,129,133,127,131,127,0
1558,125,127,128,128,122,127,129,127,0
1563,122,126,126,129,135,125,125,130,0
1570,123,127,126,129,134,126,133,130,0
1574,128,127,130,127,119,128,131,127,0
1578,134,128,127,125,120,128,131,127,0
1581,129,127,128,126,121,128,127,126,0
1584,123,127,128,128,130,126,130,127,0
1587,129,129,129,126,123,127,127,126,0
1591,128,131,126,126,122,127,127,127,0
1594,126,128,127,128,123,127,127,127,0
1597,125,128,127,128,128,127,124,127,0
1601,125,128,129,128,139,129,129,130,0
1604,125,127,125,128,140,127,129,130,0
1609,127,126,126,129,135,126,130,130,0
1617,126,126,125,127,122,128,128,127,0
1621,130,130,128,125,123,127,131,127,0
1625,132,128,129,127,120,128,130,126,0
1628,125,127,127,128,124,129,126,126,0
1632,127,128,128,127,131,127,131,128,0
1635,131,128,127,127,123,128,127,126,0
1638,125,129,129,128,130,127,124,127,0
1642,123,127,127,128,126,128,129,127,0
1645,129,126,127,129,127,127,129,129,0
1649,121,128,131,129,129,127,130,129,0
1652,125,131,127,129,136,127,129,130,0
1656,122,125,124,129,137,125,127,130,0
1659,121,129,129,128,123,127,128,127,0
1662,124,130,127,125,125,128,131,127,0
1666,132,128,128,126,122,128,128,126,0
1673,133,127,127,126,123,127,131,127,0
1677,133,127,128,126,125,128,127,127,0
1680,124,129,128,128,124,127,127,127,0
1684,125,126,128,129,131,127,123,128,0
1687,127,126,127,128,125,129,124,126,0
1690,128,126,128,128,123,128,129,127,0
1694,121,129,129,128,123,128,131,127,0
1697,122,129,127,129,132,128,128,126,0
1700,131,126,127,130,137,125,132,130,0
1703,123,125,125,129,137,127,124,127,0
1706,129,127,131,127,122,128,125,127,0
1710,130,126,131,126,122,128,128,126,0
1714,128,125,130,128,122,128,124,126,0
1717,128,125,128,126,129,128,130,127,0
1720,128,127,129,128,124,127,129,129,0
1723,126,131,127,128,125,128,124,128,0
1727,132,127,128,127,133,128,127,127,0
1730,130,124,125,129,137,126,129,131,0
1733,122,129,130,126,124,128,127,126,0
1736,127,126,127,128,123,128,127,127,0
1739,126,127,127,128,128,127,127,128,0
1744,124,125,128,128,128,128,126,128,0
1747,130,130,127,126,124,127,131,129,0
1751,127,128,127,129,124,128,129,128,0
1754,128,128,128,129,124,128,126,128,0
1759,130,127,129,128,129,128,124,126,0
1765,125,128,129,129,128,128,123,128,0
1770,129,129,128,127,138,126,129,130,0
1773,126,128,125,129,137,126,127,130,0
1776,124,126,125,129,136,127,132,128,0
1780,133,128,129,127,126,127,131,128,0
1784,134,128,128,125,123,127,131,128,0
1787,130,128,127,128,131,127,131,128,0
1791,130,126,127,126,121,128,132,127,0
1794,130,127,128,127,130,127,131,128,0
1798,126,128,127,128,126,128,126,128,0
1801,133,128,129,127,127,129,124,127,0
1805,131,127,128,128,128,128,128,128,0
1808,126,127,127,128,124,127,131,128,0
1814,123,129,127,128,129,127,127,127,0
1817,124,127,128,128,128,128,126,127,0
1820,129,126,128,129,140,125,132,130,0
1823,123,126,126,129,136,126,128,127,0
1831,131,129,127,128,125,128,128,126,0
1834,131,129,129,126,120,129,128,126,0
1837,129,127,127,129,136,129,126,125,0
1841,129,125,128,128,122,128,123,126,0
1844,133,129,129,128,127,128,127,127,0
1847,126,129,127,128,127,128,127,127,0
1850,125,126,127,128,127,127,126,126,0
1853,120,128,128,127,130,127,129,128,0
1857,123,128,128,127,130,127,129,127,0
1861,130,127,128,128,134,128,129,127,0
1865,123,128,125,129,135,125,130,129,0
1869,124,125,126,129,125,128,132,127,0
1875,134,130,126,125,124,128,131,129,0
1878,132,129,127,127,122,128,131,127,0
1881,128,127,128,126,125,128,129,128,0
1884,126,128,128,126,125,128,126,127,0
1887,128,129,128,128,124,128,126,128,0
1891,130,129,129,128,126,129,125,127,0
1894,132,127,128,128,126,128,122,126,0
1897,132,126,131,129,136,128,128,127,0
1900,130,128,129,128,123,128,127,128,0
1903,132,129,127,126,127,128,122,127,0
1906,132,126,128,126,124,128,128,127,0
1909,125,127,127,128,140,129,130,132,0
1911,121,128,127,130,138,126,128,131,0
1914,129,127,127,129,135,127,131,127,0
1917,131,127,127,126,122,128,131,127,0
1920,130,127,128,127,123,127,130,128,0
1923,130,129,129,128,124,127,131,128,0
1926,127,128,129,128,127,128,131,128,0
1931,125,126,128,128,126,127,129,129,0
1934,124,125,126,129,138,126,130,130,0
1938,127,127,127,126,119,127,131,127,0
1941,132,129,128,127,123,128,127,127,0
1943,131,126,129,127,122,128,130,127,0
1947,131,127,128,128,123,128,127,127,0
1950,129,128,128,128,129,127,126,128,0
1955,130,129,128,128,131,127,122,127,0
1961,128,127,129,129,128,128,126,126,0
1967,130,127,128,126,128,127,125,126,0
1971,124,127,128,128,126,127,128,126,0
1974,127,129,127,128,126,128,124,126,0
1977,128,128,129,129,140,124,131,131,0
1981,128,125,125,129,135,126,125,130,0
1986,131,127,129,126,123,128,129,128,0
1989,131,129,127,125,127,128,131,126,0
1993,128,128,128,126,126,128,130,128,0
1996,127,127,126,126,131,128,127,129,0
2000,130,127,130,126,126,127,126,127,0
2004,127,128,128,127,132,127,128,128,0
2008,135,123,128,126,125,128,124,128,0
2011,130,124,127,129,133,129,123,127,0
2014,123,132,127,128,128,127,128,129,0
2019,131,129,127,126,125,127,129,129,0
2022,121,128,127,129,128,127,126,127,0
2025,127,127,127,126,128,128,124,130,0
2029,123,126,126,130,138,126,126,128,0
2032,125,128,128,126,123,127,131,128,0
2035,127,129,126,127,125,128,127,128,0
2039,126,127,127,127,121,128,127,126,0
2043,133,124,129,128,127,128,130,128,0
2047,132,129,127,126,126,127,129,130,0
2050,126,128,126,129,136,126,127,129,0
2053,123,127,126,129,133,126,128,127,0
2057,133,125,129,125,120,128,131,126,0
2061,135,127,130,127,121,128,128,127,0
2068,136,130,127,125,119,127,131,126,0
2073,130,126,128,126,121,128,129,126,0
2077,133,127,128,127,124,128,128,127,0
2081,127,130,129,128,128,128,125,127,0
2085,125,126,127,128,126,127,128,129,0
2088,125,126,125,129,137,130,131,127,0
2091,128,127,128,126,122,128,128,127,0
2094,132,129,130,127,122,127,127,127,0
2098,125,128,129,129,127,127,126,126,0
2101,120,126,128,126,123,128,124,126,0
2104,129,126,129,128,123,128,126,126,0
2108,127,128,128,127,127,128,127,128,0
2111,126,127,127,130,138,127,123,129,0
2115,124,126,125,128,136,126,126,129,0
2119,124,126,126,129,129,128,131,129,0
2121,135,127,128,127,126,128,129,128,0
2124,134,129,128,127,126,128,127,125,0
2132,128,125,128,128,122,128,130,128,0
2135,121,131,129,128,122,127,130,128,0
2141,125,130,128,127,127,128,130,128,0
2145,131,129,129,128,127,128,130,127,0
2148,125,127,128,129,123,129,124,129,0
2151,124,126,126,129,138,127,123,127,0
2154,129,130,128,128,126,127,127,127,0
2160,123,128,127,126,125,127,127,129,0
2163,130,126,128,126,127,128,123,126,0
2168,127,127,128,126,125,127,129,128,0
2174,127,128,130,126,136,128,125,129,0
2179,132,127,128,128,131,128,125,127,0
2184,130,126,129,128,129,128,125,128,0
2187,126,128,127,128,125,129,126,128,0
2190,126,129,128,128,127,128,124,127,0
2194,128,129,127,128,124,128,132,128,0
2197,124,127,126,129,136,124,131,130,0
2201,125,126,125,129,132,127,125,126,0
2204,136,128,127,125,123,128,131,128,0
2208,132,128,128,125,123,127,132,127,0
2211,132,128,129,128,122,128,130,126,0
2215,126,125,126,128,123,127,131,127,0
2218,131,128,128,126,126,127,129,128,0
2221,126,129,127,128,131,128,126,127,0
2225,129,127,130,128,130,129,125,128,0
2227,118,126,127,126,127,128,128,127,0
2231,132,129,129,126,129,127,127,128,0
2235,132,129,128,128,123,129,127,126,0
2238,123,125,129,128,123,128,128,127,0
2244,121,128,126,128,137,126,131,129,0
2248,125,127,126,129,135,128,128,128,0
2251,134,128,129,127,132,127,129,127,0
2254,133,130,127,128,126,128,128,126,0
2260,124,127,128,128,123,127,128,126,0
2264,123,127,127,128,124,128,124,127,0
2267,132,129,127,128,125,127,126,128,0
2271,130,126,128,128,128,127,125,126,0
2274,125,126,129,129,137,127,127,130,0
2277,127,125,126,130,136,125,125,128,0
2281,130,130,127,127,124,128,132,129,0
2285,129,131,127,127,125,128,129,126,0
2291,129,128,126,127,122,128,130,128,0
2294,125,127,128,127,123,128,127,127,0
2298,131,129,129,128,124,128,125,127,0
2301,124,126,128,128,130,129,126,126,0
2304,128,125,128,128,122,127,127,127,0
2309,127,127,128,127,131,127,130,128,0
2313,131,129,129,128,132,127,125,128,0
2317,132,127,129,128,131,127,129,127,0
2319,126,124,126,129,134,125,132,130,0
2322,126,126,126,129,135,126,125,126,0
2326,132,129,128,126,122,128,131,126,0
2329,131,128,127,126,121,128,127,127,0
2331,131,127,127,128,124,128,126,126,0
2335,126,127,127,126,127,127,131,129,0
2340,128,127,128,128,127,128,128,127,0
2343,132,129,128,128,125,128,126,128,0
2346,126,127,126,128,129,127,123,126,0
2350,121,126,127,128,138,128,128,127,0
2354,126,129,127,126,127,127,128,129,0
2357,128,128,127,128,141,127,128,130,0
2361,124,127,127,128,137,126,130,129,0
2365,127,126,127,128,121,128,123,127,0
2370,134,129,129,128,121,127,127,126,0
2373,131,128,127,128,124,128,129,127,0
2377,130,128,131,127,122,128,126,127,0
2381,127,126,127,128,136,127,130,128,0
2384,132,127,128,128,127,128,128,127,0
2387,130,129,129,126,125,129,124,127,0
2391,130,127,129,126,122,128,124,126,0
2394,124,125,124,129,134,126,128,129,0
2398,122,128,128,127,120,128,128,126,0
2403,133,128,130,126,123,128,127,126,0
2406,129,128,129,128,123,128,130,127,0
2411,131,128,128,126,127,128,126,125,0
2414,124,128,128,128,126,128,124,128,0
2417,130,127,128,128,131,128,128,129,0
2420,126,128,128,129,136,127,124,128,0
2423,132,127,128,128,124,128,126,127,0
2427,125,128,127,126,125,127,128,127,0
2433,125,128,128,128,131,127,130,127,0
2435,126,127,128,126,124,128,125,129,0
2439,122,126,125,129,138,126,130,130,0
2442,127,127,126,127,123,127,130,128,0
2446,134,129,127,126,123,128,127,126,0
2449,125,127,127,128,125,127,131,126,0
2452,127,126,125,129,135,126,127,129,0
2456,127,128,127,128,119,128,128,126,0
2459,133,129,128,125,120,128,128,126,0
2462,132,129,129,128,121,128,125,126,0
2467,133,125,129,126,122,128,131,127,0
2471,125,127,128,128,125,127,131,128,0
2474,128,129,129,128,129,128,127,125,0
2477,133,128,130,129,127,128,123,127,0
2480,123,126,126,129,143,127,125,130,0
2483,123,127,125,129,137,129,125,127,0
2486,128,131,127,127,126,128,128,128,0
2489,125,128,127,128,130,128,127,128,0
2492,131,126,128,127,133,128,125,128,0
2496,131,128,128,127,126,127,124,128,0
2499,130,129,127,128,128,128,128,127,0
2503,118,126,127,128,131,128,125,128,0
2507,121,127,128,126,122,128,126,127,0
2512,127,125,127,129,137,126,132,130,0
2517,126,128,126,129,131,126,125,129,0
2520,122,129,126,129,132,126,128,127,0
2523,125,122,130,128,117,127,129,126,0
2526,130,135,126,127,123,128,132,127,0
2528,133,129,128,125,124,128,127,128,0
2531,132,128,127,127,124,127,128,127,0
2534,132,128,129,127,127,127,130,128,0
2537,128,127,128,128,127,128,126,128,0
2540,130,127,129,127,124,128,125,126,0
2543,121,129,128,128,129,129,124,126,0
2547,130,126,127,126,134,128,125,127,0
2550,131,127,127,128,130,128,125,128,0
2554,121,128,130,127,124,128,123,127,0
2557,131,128,129,126,120,127,128,128,0
2560,120,127,127,128,140,125,129,130,0
2563,126,126,125,129,136,126,127,129,0
2566,125,129,128,125,121,127,132,127,0
2569,132,129,128,125,122,129,127,126,0
2572,131,128,129,128,126,128,130,127,0
2575,127,126,127,126,125,128,128,126,0
2578,127,129,130,126,125,127,127,127,0
2582,127,128,127,127,131,127,129,127,0
2585,130,127,128,128,136,128,127,126,0
2588,128,126,129,128,129,127,124,128,0
2591,127,129,128,128,127,127,123,128,0
2594,133,129,127,128,129,130,126,127,0
2598,128,128,127,128,129,128,125,127,0
2601,131,127,127,126,136,128,130,128,0
2604,133,128,129,128,122,127,128,128,0
2608,132,129,128,128,126,127,123,127,0
2612,129,128,127,128,132,127,125,128,0
2618,121,126,126,129,135,126,126,131,0
2621,125,128,125,129,136,128,132,128,0
2624,123,128,127,128,122,127,129,126,0
2627,135,127,130,126,119,128,127,126,0
2630,130,127,126,127,124,127,131,128,0
2637,124,128,127,125,121,127,129,127,0
2640,128,129,128,127,129,127,131,127,0
2644,126,125,126,128,121,128,127,126,0
2647,125,125,127,129,126,128,127,126,0
2651,125,127,128,126,124,127,127,126,0
2655,127,128,128,129,139,127,128,131,0
2659,130,128,124,129,137,126,127,129,0
2663,126,127,125,128,132,128,132,125,0
2667,130,129,129,125,118,128,125,128,0
2671,134,129,128,126,123,128,126,127,0
2674,132,126,130,128,121,129,125,125,0
2677,125,123,130,128,122,128,125,126,0
2680,129,127,128,126,126,127,130,129,0
2684,125,131,128,127,125,127,131,129,0
2687,131,129,128,126,129,127,125,128,0
2690,133,128,128,128,126,127,130,128,0
2694,129,127,127,126,127,127,128,129,0
2697,126,128,128,129,123,127,125,129,0
2701,125,125,126,128,123,128,127,127,0
2705,131,129,127,127,135,127,125,131,0
2708,122,127,128,125,122,128,129,128,0
2711,130,129,128,127,124,128,128,127,0
2714,131,129,129,128,134,128,128,127,0
2717,130,127,128,128,131,128,125,128,0
2722,121,128,128,126,123,127,129,129,0
2728,121,129,127,128,126,127,128,129,0
2736,121,129,129,126,136,127,125,129,0
2740,124,126,125,129,135,127,125,130,0
2743,123,127,125,128,136,127,131,127,0
2747,129,128,128,125,119,127,131,128,0
2751,130,129,127,126,123,128,127,127,0
2754,128,127,127,126,122,128,128,126,0
2758,128,126,128,126,129,128,125,126,0
2761,130,128,128,128,123,129,128,129,0
2765,126,129,127,128,131,128,127,129,0
2768,121,128,128,128,134,128,124,130,0
2772,122,126,127,129,138,127,129,128,0
2775,133,128,128,126,129,128,124,129,0
2778,121,125,129,128,120,128,128,126,0
2782,125,131,127,126,121,126,130,127,0
2785,125,129,130,129,127,127,127,126,0
2788,133,126,128,126,125,128,126,131,0
2792,123,125,127,129,135,127,129,130,0
2795,123,128,125,129,132,127,126,131,0
2799,122,128,127,128,123,129,132,127,0
2802,125,129,128,128,124,127,131,128,0
2806,131,127,129,126,127,128,128,127,0
2809,135,126,127,128,137,128,127,127,0
2812,132,125,127,128,122,128,127,127,0
2816,129,128,130,128,130,128,127,127,0
2819,126,131,126,127,127,127,128,128,0
2822,124,127,127,127,129,128,126,128,0
2826,127,127,128,128,128,128,124,126,0
2829,128,128,129,128,124,127,128,128,0
2834,129,128,127,127,124,128,127,126,0
2842,126,128,127,129,137,126,129,130,0
2845,125,126,125,130,136,127,129,129,0
2849,129,127,126,129,132,128,126,127,0
2852,131,129,128,127,122,128,125,127,0
2855,132,128,127,126,121,128,131,127,0
2858,128,127,128,126,122,128,126,126,0
2862,129,125,128,127,123,128,127,127,0
2865,127,128,129,126,125,127,129,128,0
2869,123,127,127,128,128,128,127,127,0
2872,129,127,128,128,125,128,127,127,0
2875,131,126,126,126,128,127,129,128,0
2880,126,128,128,129,123,128,126,128,0
2889,117,127,129,130,138,124,132,130,0
2893,127,125,125,128,136,125,126,127,0
2897,134,127,128,124,119,128,132,126,0
2900,130,131,128,126,119,128,128,127,0
2904,128,128,128,125,120,128,128,125,0
2907,125,127,126,129,135,127,122,126,0
2911,133,127,129,128,124,128,128,127,0
2914,132,128,128,126,122,128,132,129,0
2918,124,129,127,128,126,128,126,127,0
2921,127,128,129,128,131,128,125,127,0
2926,121,127,127,129,125,127,126,128,0
2929,126,128,128,128,129,128,131,128,0
2932,126,128,128,128,126,128,124,128,0
2936,127,127,129,129,136,128,129,127,0
2940,122,123,128,127,126,128,130,129,0
2942,127,130,129,128,132,127,127,127,0
2947,129,126,127,126,127,127,125,129,0
2954,122,128,123,129,137,125,127,129,0
2957,124,127,127,128,122,128,131,128,0
2962,129,129,128,127,121,127,130,127,0
2965,129,127,128,128,125,128,127,126,0
2969,132,128,129,128,121,128,127,126,0
2972,129,127,128,128,123,127,126,126,0
2975,129,129,127,126,122,127,131,128,0
2978,127,128,128,128,135,128,128,128,0
2982,119,124,126,129,139,124,128,130,0
2992,124,125,126,129,128,127,128,128,0
2996,129,128,128,125,125,128,131,128,0
2999,127,129,126,127,125,128,125,127,0
3002,134,125,127,125,127,128,125,126,0
3006,129,127,129,128,135,128,125,128,0
3009,132,128,130,129,130,128,128,127,0
3013,132,130,130,128,123,128,125,126,0
3017,122,127,127,130,137,126,128,129,0
3020,123,125,127,126,122,129,128,126,0
3023,133,128,129,128,123,129,126,128,0
3026,133,130,128,126,120,128,128,127,0
3029,129,126,128,128,131,128,126,126,0
3035,132,129,128,128,129,128,126,127,0
3040,129,128,131,128,123,128,128,127,0
3044,132,129,128,126,130,128,131,127,0
3048,126,127,128,128,131,128,126,127,0
3051,124,126,129,127,126,127,124,127,0
3055,126,126,127,128,124,128,126,129,0
3058,125,128,128,128,130,127,127,130,0
3066,125,126,126,129,135,126,132,130,0
3072,129,126,126,129,133,125,130,127,0
3089,130,128,127,128,123,127,131,128,0
3093,133,129,127,125,121,127,128,127,0
3097,131,128,129,126,123,128,127,127,0
3100,131,125,127,128,126,127,129,126,0
3104,130,128,127,126,124,128,130,128,0
3107,132,128,129,128,130,128,128,129,0
3110,121,128,127,125,125,128,123,126,0
3113,127,127,129,128,140,129,124,128,0
3117,132,127,129,128,130,128,125,128,0
3121,129,129,128,128,127,128,124,128,0
3124,119,127,127,126,126,128,124,126,0
3127,125,126,127,126,126,128,123,127,0
3130,133,128,128,127,128,127,130,128,0
3134,130,129,129,126,127,128,126,127,0
3137,123,127,128,130,137,126,127,129,0
3141,123,126,125,128,134,124,128,129,0
3144,124,127,126,128,116,127,131,127,0
3147,134,130,127,125,119,128,130,127,0
3150,129,125,128,125,124,128,130,126,0
3153,128,127,127,126,122,127,132,126,0
3155,126,126,128,128,124,127,132,127,0
3159,136,127,127,126,124,128,131,128,0
3165,127,130,127,128,125,128,124,128,0
3170,128,124,126,127,130,129,124,128,0
3173,131,128,129,129,127,128,127,127,0
3176,125,130,127,128,130,128,128,128,0
3179,127,129,128,129,130,127,127,127,0
3182,132,127,127,129,128,128,123,126,0
3185,126,127,128,128,128,129,126,130,0
3190,125,127,127,130,139,125,130,130,0
3201,124,127,125,128,135,128,126,126,0
3204,129,127,126,128,122,127,131,127,0
3207,128,127,129,127,121,127,127,127,0
3210,129,129,129,126,126,128,125,128,0
3213,120,128,128,128,130,127,131,127,0
3217,128,127,128,126,122,128,130,127,0
3220,125,125,126,129,135,125,127,129,0
3223,124,128,126,128,121,128,132,127,0
3226,129,130,128,127,121,128,129,128,0
3230,132,125,130,127,123,128,126,126,0
3232,126,127,127,128,123,128,132,128,0
3240,129,129,127,128,122,128,126,128,0
3243,126,128,128,127,130,127,129,128,0
3246,123,128,127,128,128,128,126,127,0
3249,127,125,126,128,126,128,126,127,0
3254,129,128,128,128,127,127,131,129,0
3257,121,128,127,128,130,128,129,127,0
3264,128,127,127,128,128,128,123,127,0
3267,127,126,127,129,140,127,129,129,0
3275,124,128,126,129,136,127,129,127,0
3281,129,128,128,127,121,128,128,126,0
3285,123,127,129,129,124,128,125,124,0
3289,129,126,127,128,124,128,129,126,0
3292,128,129,128,128,122,128,129,127,0
3296,131,129,129,128,124,128,126,127,0
3299,128,127,126,129,136,127,130,130,0
3302,120,126,126,129,135,126,132,130,0
3305,126,128,127,128,125,128,126,127,0
3309,131,126,127,127,122,128,128,127,0
3312,134,127,127,126,123,128,126,125,0
3318,130,125,127,128,126,129,126,125,0
3324,131,126,130,126,122,128,127,127,0
3327,129,132,127,126,124,128,128,126,0
3332,121,129,127,126,124,127,127,126,0
3336,124,126,126,130,136,125,125,130,0
3342,124,126,129,125,128,130,132,128,0
3345,126,132,126,127,121,127,131,128,0
3349,124,128,127,128,127,128,124,126,0
3353,129,123,126,127,123,127,131,129,0
3356,132,128,129,126,124,127,127,128,0
3359,133,129,130,126,124,128,124,128,0
3362,132,127,129,128,127,128,127,126,0
3366,130,125,127,127,136,127,124,128,0
3369,121,128,126,128,127,128,128,127,0
3372,126,129,126,129,136,127,129,129,0
3382,122,128,128,128,122,127,129,130,0
3386,124,127,125,128,135,128,124,128,0
3389,125,129,129,127,124,127,132,128,0
3393,127,124,130,127,123,127,127,126,0
3396,130,126,127,128,125,128,129,128,0
3400,128,128,127,128,132,129,126,127,0
3403,125,125,129,126,125,128,125,128,0
3406,126,131,128,127,124,128,124,127,0
3461,132,128,128,126,129,128,123,128,0
3475,128,127,127,129,139,126,129,130,0
3480,125,126,126,129,138,126,128,129,0
3484,132,130,129,128,119,127,128,126,0
3488,129,128,129,128,121,128,127,126,0
3528,129,126,127,129,124,128,127,126,0
3538,124,127,127,128,123,127,131,128,0
3546,129,129,127,128,132,128,129,128,0
3594,120,128,129,128,128,127,129,128,0
3605,120,127,127,127,128,128,128,129,0
3615,123,127,126,129,139,126,129,131,0
3621,123,130,128,126,122,127,128,127,0
3626,133,128,128,125,123,128,125,126,0
3664,134,124,130,128,126,128,127,126,0
3677,135,128,128,125,123,128,126,128,0
3685,125,131,127,126,128,127,129,127,0
3731,122,129,128,127,126,127,125,128,0
3742,122,127,127,128,125,127,124,128,0
3752,124,126,126,129,137,126,131,130,0
3759,124,126,130,128,121,128,127,125,0
3764,129,127,128,128,125,127,130,126,0
3769,135,125,126,127,121,128,126,127,0
3773,124,129,126,127,125,127,131,129,0
3776,122,129,126,128,127,128,125,128,0
3780,129,128,127,127,126,128,127,128,0
3787,128,127,126,129,131,129,125,127,0
3792,129,125,128,126,129,128,125,126,0
3795,126,128,130,126,137,126,127,130,0
3799,125,127,127,129,137,127,128,129,0
3802,124,126,125,128,133,126,128,128,0
3806,121,126,127,127,119,127,133,127,0
3809,132,128,128,125,121,127,132,126,0
3813,129,128,126,127,123,128,131,127,0
3819,130,127,127,127,123,128,130,127,0
3822,128,127,127,125,124,128,130,127,0
3826,131,129,128,128,126,128,126,127,0
3830,128,129,127,127,125,127,131,127,0
3833,128,126,127,128,126,127,129,127,0
3836,127,127,127,128,131,128,127,129,0
3840,121,129,128,128,129,128,129,127,0
3843,128,129,127,127,128,128,126,127,0
3846,132,127,127,127,126,127,123,127,0
3851,129,126,129,129,137,127,130,130,0
3855,125,128,125,129,137,126,130,130,0
3858,127,128,126,129,132,126,126,130,0
3862,127,127,125,129,131,128,125,126,0
3865,131,127,129,127,120,127,131,127,0
3869,129,129,127,128,123,128,127,126,0
3872,124,128,129,126,122,128,127,126,0
3875,130,126,130,128,125,128,130,128,0
3879,132,125,128,126,131,128,130,128,0
3882,128,133,127,126,125,128,128,127,0
3885,129,129,128,126,125,128,126,128,0
3890,129,132,128,126,129,128,126,127,0
3893,121,124,128,128,129,128,125,127,0
3896,124,128,127,128,127,127,127,128,0
3899,127,127,126,129,139,126,126,130,0
3903,122,128,125,129,136,127,124,128,0
3905,124,127,127,127,120,127,131,127,0
3909,130,128,127,126,123,128,126,127,0
3912,133,129,129,128,127,128,125,126,0
3915,125,128,126,128,136,129,123,126,0
3918,136,124,128,128,128,128,125,128,0
3922,132,128,127,129,122,127,132,128,0
3927,129,130,128,128,125,127,133,128,0
3933,120,128,130,128,126,128,126,128,0
3937,125,126,125,129,137,127,127,130,0
3945,134,130,130,127,122,128,127,126,0
3951,130,126,128,128,125,129,127,125,0
3956,127,127,127,126,123,127,132,127,0
3942,123,127,125,128,132,126,126,127,0
3960,128,128,128,126,120,127,131,127,0
3999,127,127,128,126,123,128,125,126,0
4004,132,128,127,127,124,128,124,127,0
4008,126,130,126,128,127,127,127,129,0
4013,120,127,126,128,130,128,128,127,0
4016,127,128,130,126,124,128,126,127,0
4021,126,128,129,128,126,128,125,126,0
4025,123,127,126,130,138,126,129,129,0
4029,124,126,126,128,134,128,129,127,0
4033,133,129,128,126,125,127,127,128,0
4037,133,128,128,126,125,129,127,127,0
4041,129,125,127,126,130,129,131,128,0
4049,131,129,128,129,134,128,123,127,0
4045,126,129,128,129,136,128,126,128,0
4053,133,129,128,126,125,127,124,127,0
4056,129,128,128,128,136,126,126,130,0
4060,120,126,126,129,136,127,128,127,0
4064,129,128,126,129,137,128,126,126,0
4068,125,129,127,128,127,128,127,127,0
4072,132,128,127,126,121,127,131,127,0
4077,128,127,128,128,121,128,126,126,0
4081,131,128,130,129,128,127,126,126,0
4084,130,125,127,126,129,128,126,128,0
4087,119,131,126,127,133,127,124,129,0
4091,124,127,126,130,135,126,127,129,0
4094,122,129,130,126,122,128,128,128,0
4098,129,127,130,126,120,128,128,126,0
4101,128,128,126,129,121,128,126,126,0
4105,123,126,128,128,124,128,123,126,0
4110,132,127,129,126,128,128,123,126,0
4113,130,132,128,128,127,128,126,127,0
4116,128,127,127,126,130,129,126,128,0
4120,128,125,125,130,135,125,127,130,0
4123,124,127,126,128,136,129,131,128,0
4126,132,128,127,127,122,127,131,127,0
4129,130,128,127,127,123,127,129,127,0
4135,129,128,128,126,125,128,126,127,0
4140,133,126,127,128,133,128,128,127,0
4143,129,129,128,128,123,127,129,128,0
4147,130,128,128,129,130,128,129,126,0
4151,130,124,128,128,128,127,128,128,0
4155,123,131,127,126,126,128,129,127,0
4158,125,129,128,128,132,128,127,127,0
4161,131,128,128,128,126,128,126,128,0
4164,129,127,127,128,137,129,125,128,0
4168,122,128,128,128,124,128,127,128,0
4172,129,130,128,127,130,128,124,128,0
4176,135,124,127,126,127,127,125,126,0
4179,128,126,128,130,139,125,131,131,0
4208,134,125,124,129,133,127,125,127,0
4211,131,128,127,127,122,128,128,128,0
4219,134,127,127,127,120,127,130,127,0
4216,132,129,128,127,120,128,132,126,0
4224,131,127,128,126,122,127,132,128,0
4231,128,128,128,128,127,128,126,127,0
4235,127,130,127,127,129,128,125,128,0
4238,131,128,127,128,123,128,125,126,0
4268,130,127,129,129,127,128,128,127,0
4272,123,127,127,126,127,127,132,128,0
4277,127,128,126,129,139,126,127,129,0
4284,129,125,123,129,137,126,127,130,0
4290,124,125,125,127,120,128,129,128,0
4295,128,130,127,128,125,127,131,128,0
4303,129,130,129,126,124,128,124,126,0
4310,134,125,127,127,122,128,127,126,0
4328,123,126,127,128,123,128,131,127,0
4333,131,129,128,128,122,128,127,127,0
4338,128,128,127,128,127,127,127,128,0
4350,131,129,128,128,122,128,126,128,0
4345,127,127,127,126,124,128,126,128,0
4342,117,129,127,128,124,128,127,126,0
4354,126,127,126,129,139,126,128,129,0
4360,122,127,125,128,135,127,130,127,0
4364,128,127,128,127,124,128,132,128,0
4368,130,129,127,125,125,127,132,128,0
4372,132,128,128,126,126,127,128,128,0
4378,129,126,127,128,127,128,127,126,0
4382,123,127,127,128,129,127,130,128,0
4386,125,129,128,129,123,127,129,128,0
4392,130,125,129,128,130,128,126,128,0
4397,123,125,123,129,135,126,127,130,0
4401,130,128,124,128,136,128,129,128,0
4405,130,130,128,128,122,127,130,127,0
4408,128,126,127,127,126,129,130,128,0
4412,122,128,127,125,123,128,125,127,0
4416,130,128,126,128,127,128,127,126,0
4419,126,126,128,125,127,127,132,128,0
4423,127,129,128,127,136,127,129,127,0
4426,130,125,127,128,124,128,127,126,0
4430,132,126,129,128,129,128,125,129,0
4436,118,127,128,126,123,127,129,127,0
4440,129,129,128,126,125,127,129,128,0
4443,128,128,128,128,127,129,128,128,0
4446,124,126,126,129,137,126,126,130,0
4450,124,127,127,125,121,128,128,127,0
4455,133,130,130,128,126,128,128,126,0
4459,132,128,129,128,126,128,127,126,0
4462,126,126,128,128,127,128,126,126,0
4466,132,126,127,128,125,129,129,129,0
4469,125,130,126,126,124,128,128,126,0
4473,129,128,127,129,132,128,124,126,0
4477,125,126,128,129,126,127,127,126,0
4480,118,126,128,129,125,128,127,128,0
4484,125,130,127,128,125,128,127,128,0
4487,130,129,128,128,135,129,127,127,0
4490,131,127,129,129,139,126,128,129,0
4493,119,126,127,130,135,126,132,130,0
4496,122,129,127,125,122,127,128,126,0
4500,134,128,129,127,123,128,125,126,0
4505,130,126,127,128,122,128,128,128,0
4510,128,127,128,128,122,128,124,126,0
4514,126,128,127,128,124,128,129,127,0
4519,126,129,128,126,129,128,127,128,0
4522,126,127,128,127,124,128,124,129,0
4525,124,126,127,128,125,127,130,128,0
4529,123,129,130,129,134,127,127,127,0
4534,127,128,128,128,131,128,126,126,0
4537,128,127,127,128,122,126,127,131,0
4542,127,125,125,129,135,126,127,130,0
4549,126,128,129,127,119,127,128,126,0
4553,135,129,128,125,122,127,132,127,0
4562,128,129,127,126,131,128,127,127,0
4565,132,126,129,128,123,128,127,127,0
4569,131,129,129,129,130,128,129,129,0
4572,119,126,129,128,127,128,129,127,0
4576,128,127,126,128,122,127,131,128,0
4579,125,127,127,128,122,128,129,129,0
4582,130,128,128,128,124,128,131,127,0
4586,125,126,127,128,127,128,126,127,0
4589,129,126,129,128,123,128,129,128,0
4592,122,129,126,128,126,128,131,128,0
4595,126,129,126,126,127,127,127,128,0
4599,123,129,128,128,132,127,128,130,0
4602,122,127,124,129,134,126,131,129,0
4605,123,127,126,128,134,128,131,127,0
4609,129,129,128,127,124,128,131,129,0
4612,127,129,128,126,122,127,129,127,0
4617,130,127,127,126,124,128,127,126,0
4622,125,125,129,128,128,128,124,126,0
4626,132,128,127,128,125,127,128,127,0
4629,127,129,127,128,125,128,128,128,0
4633,123,126,128,128,123,127,122,125,0
4636,130,124,127,126,125,127,126,128,0
4639,122,130,128,128,125,128,124,127,0
4642,128,129,128,129,126,128,132,127,0
4644,124,127,127,128,126,128,123,129,0
4647,123,126,126,129,136,126,127,130,0
4650,126,127,126,128,136,126,129,126,0
4652,135,128,128,125,118,128,127,126,0
4655,133,128,128,128,122,128,130,125,0
4659,129,127,127,127,121,128,127,127,0
4662,131,128,128,127,123,128,130,127,0
4666,132,129,128,128,125,127,131,128,0
4670,128,126,128,128,140,127,126,130,0
4674,124,125,126,130,138,126,127,130,0
4677,125,126,127,128,124,128,126,128,0
4682,129,131,128,127,126,128,127,127,0
4686,130,126,130,128,126,128,125,127,0
4689,124,127,129,128,125,127,127,127,0
4693,125,127,127,126,125,127,124,128,0
4697,134,128,128,127,127,128,127,129,0
4700,130,128,129,128,127,128,126,126,0
4702,123,127,127,128,139,128,124,126,0
4705,126,128,127,128,128,128,130,127,0
4710,129,129,128,128,125,128,126,128,0
4716,129,129,127,127,126,128,123,127,0
4722,131,127,129,129,136,126,128,130,0
4730,131,123,125,128,134,129,133,128,0
4733,135,128,129,127,122,128,129,127,0
4736,130,127,128,127,126,128,125,126,0
4742,126,129,128,128,127,128,125,126,0
4746,125,127,128,128,125,128,128,128,0
4750,125,128,128,126,125,128,127,128,0
4754,124,128,127,126,131,128,125,126,0
4761,126,126,128,128,130,128,126,128,0
4764,129,128,129,129,138,126,129,130,0
4768,116,130,126,128,133,126,130,130,0
4771,122,129,127,125,118,128,129,126,0
4775,132,126,127,127,120,128,126,126,0
4778,132,127,128,126,122,127,131,128,0
4781,126,126,130,126,125,128,126,127,0
4785,125,128,128,128,128,127,129,129,0
4788,124,126,126,129,139,127,126,129,0
4791,125,127,126,129,135,126,131,130,0
4794,130,128,126,129,124,128,124,126,0
4798,129,127,128,127,122,128,128,127,0
4801,133,126,129,126,119,127,130,127,0
4804,128,127,128,128,127,128,131,127,0
4807,127,129,127,128,124,128,128,128,0
4810,134,128,129,128,129,129,126,126,0
4813,123,127,128,128,130,128,127,127,0
4817,124,127,127,128,125,127,129,129,0
4820,128,129,126,129,128,128,127,128,0
4826,131,129,127,128,129,128,126,129,0
4830,127,128,127,129,128,128,125,127,0
4835,132,126,128,128,128,128,124,128,0
4839,128,128,129,128,121,128,124,127,0
4843,127,128,129,128,128,128,124,128,0
4851,128,126,125,129,137,124,129,130,0
4857,124,126,125,129,135,127,130,127,0
4861,131,129,130,127,121,128,130,128,0
4865,133,127,129,125,122,128,128,127,0
4869,126,127,127,127,123,127,130,127,0
4872,131,126,128,126,123,129,130,128,0
4876,133,129,130,129,126,128,128,127,0
4879,129,129,127,128,126,128,125,125,0
4883,123,127,127,128,124,128,127,126,0
4887,125,127,128,128,137,128,124,126,0
4893,129,128,128,127,129,129,123,127,0
4899,126,128,127,127,124,127,127,127,0
4902,126,127,128,128,129,128,129,128,0
4909,128,127,128,127,130,127,128,127,0
4913,128,128,130,128,122,127,127,128,0
4932,131,128,129,129,133,127,129,127,0
4936,127,127,127,126,126,128,129,128,0
4940,120,126,126,129,135,125,129,130,0
4947,125,127,126,129,134,127,132,128,0
4951,133,128,128,125,123,128,128,128,0
4956,130,130,127,126,129,128,126,127,0
4959,127,128,126,128,128,127,131,128,0
4968,123,128,127,127,128,127,132,128,0
4972,130,129,131,126,129,127,127,127,0
4978,128,127,126,128,128,127,130,126,0
4983,123,126,128,129,131,128,129,127,0
4989,133,130,128,128,123,128,130,128,0
4992,131,130,129,130,134,126,128,129,0
4995,125,127,126,129,135,126,129,129,0
4999,127,126,126,129,134,126,123,127,0
5002,130,128,129,127,121,127,132,128,0
5005,129,129,128,128,126,128,127,128,0
5008,132,128,129,126,123,128,128,127,0
5012,127,127,128,129,129,128,124,126,0
5015,121,128,128,126,122,127,130,128,0
5018,122,129,127,126,123,128,127,127,0
5022,128,129,126,128,128,128,126,128,0
5025,123,127,128,126,130,128,125,127,0
5028,129,127,129,127,129,128,127,126,0
5032,131,123,127,125,126,127,128,128,0
5035,127,126,128,128,130,127,128,128,0
5039,127,129,127,126,128,128,126,129,0
5042,124,132,127,128,126,127,125,129,0
5045,125,130,129,128,124,127,129,131,0
5049,121,127,126,129,139,125,130,130,0
5052,129,126,125,128,135,126,127,129,0
5056,123,126,130,127,120,128,128,126,0
5059,130,126,128,127,125,129,131,128,0
5063,132,129,127,128,125,129,131,127,0
5066,135,125,130,126,122,128,127,126,0
5069,127,127,127,126,125,127,132,128,0
5073,129,129,128,127,123,128,127,126,0
5076,131,128,129,128,126,127,127,127,0
5080,124,126,127,126,126,128,127,127,0
5084,131,127,128,128,127,127,128,127,0
5088,129,129,127,128,126,128,129,128,0
5094,131,129,129,129,136,128,127,126,0
5097,128,127,128,126,138,129,126,128,0
5100,120,126,126,130,136,127,129,130,0
5103,126,127,126,127,129,127,131,127,0
5105,134,129,128,128,126,127,131,127,0
5108,134,128,129,126,123,128,127,126,0
5111,125,127,129,128,127,127,128,127,0
5114,131,128,128,128,124,129,125,128,0
5118,133,129,128,126,129,128,124,128,0
5120,126,129,126,128,137,126,129,130,0
5124,122,126,127,129,135,126,127,126,0
5127,137,123,128,125,124,128,128,128,0
5130,132,131,128,128,122,128,130,128,0
5133,117,129,128,128,121,127,131,127,0
5136,128,127,127,128,122,128,124,126,0
5140,127,128,127,126,123,127,128,127,0
5143,127,129,129,127,128,128,124,127,0
5148,122,127,128,129,122,127,123,128,0
5152,121,125,126,129,136,126,129,129,0
5155,128,126,126,129,134,125,132,129,0
5159,123,127,128,127,119,128,132,127,0
5163,130,128,127,125,119,128,127,126,0
5165,132,127,128,125,121,128,129,125,0
5169,123,128,128,125,126,128,126,128,0
5172,130,129,127,128,122,128,126,125,0
5175,122,128,127,126,124,128,130,126,0
5178,127,127,129,128,130,128,125,127,0
5182,128,128,127,128,131,128,125,128,0
5187,128,129,128,126,129,127,127,127,0
5191,122,128,127,128,128,128,125,127,0
5194,126,126,126,129,139,126,125,129,0
5197,126,127,126,129,137,126,122,127,0
5201,134,129,128,127,119,127,132,127,0
5204,134,128,128,128,122,128,126,126,0
5208,130,128,127,128,122,127,127,127,0
5211,126,128,128,127,125,128,126,127,0
5214,128,129,128,126,127,128,127,127,0
5216,131,128,128,128,125,128,123,127,0
5221,129,127,129,130,139,125,131,129,0
5223,124,126,126,129,130,127,129,128,0
5227,133,129,127,128,123,128,130,128,0
5232,127,127,128,127,122,128,126,126,0
5235,130,126,129,128,125,129,128,127,0
5238,128,127,128,128,126,127,128,128,0
5241,119,129,128,128,129,128,124,127,0
5245,127,129,128,128,127,128,125,127,0
5248,126,127,127,129,132,129,125,126,0
5251,130,127,128,128,132,128,126,128,0
5254,126,129,128,127,126,127,125,127,0
5258,127,128,126,129,137,125,126,131,0
5261,127,126,125,128,138,125,126,129,0
5264,124,128,126,127,120,128,130,125,0
5267,128,130,130,128,121,127,127,125,0
5270,131,123,129,128,126,128,126,126,0
5277,132,127,127,128,121,128,128,128,0
5281,123,133,126,125,122,128,131,129,0
5287,131,127,129,126,127,128,129,128,0
5291,121,132,126,126,124,127,131,127,0
5295,127,127,127,127,129,128,126,127,0
5298,127,127,128,126,120,128,127,128,0
5301,126,128,128,127,127,128,131,127,0
5305,127,127,128,129,128,128,129,127,0
5309,124,127,128,129,139,128,127,127,0
5312,131,128,126,126,137,127,129,129,0
5316,124,128,128,128,130,127,130,129,0
5320,131,128,127,127,127,128,124,127,0
5323,131,125,125,129,137,125,128,130,0
5325,129,126,125,128,135,126,127,129,0
5328,124,127,128,127,119,127,133,126,0
5332,133,129,127,128,125,129,126,125,0
5336,129,127,127,126,120,127,126,126,0
5339,133,127,128,126,126,128,127,126,0
5342,125,128,127,128,123,127,130,129,0
5346,118,129,127,128,123,128,129,127,0
5350,126,125,127,126,124,127,130,128,0
5354,133,127,128,129,137,127,128,128,0
5358,132,127,129,127,122,127,130,127,0
5361,132,126,128,126,131,128,127,127,0
5365,128,129,126,127,124,127,129,128,0
5368,119,130,127,128,133,128,128,127,0
5371,130,127,127,126,127,127,132,129,0
5375,122,128,126,128,140,126,130,132,0
5379,126,128,125,128,137,126,130,130,0
5385,127,127,127,125,122,128,127,126,0
5390,130,127,127,126,122,127,128,127,0
5393,132,129,128,127,122,128,129,126,0
5397,134,126,129,128,136,128,125,125,0
5400,134,126,127,126,125,129,128,127,0
5403,125,130,127,128,121,127,128,128,0
5406,128,129,127,126,127,127,128,127,0
5409,128,128,128,126,127,126,126,131,0
5448,123,126,124,130,135,125,127,129,0
5463,122,126,131,125,123,128,127,126,0
5469,132,127,130,128,125,127,130,127,0
5473,117,132,126,125,123,128,131,127,0
5477,132,128,127,128,130,128,130,127,0
5480,128,127,127,128,125,128,127,128,0
5484,125,129,127,125,127,127,131,129,0
5489,121,128,127,126,128,127,129,129,0
5492,121,127,127,127,133,128,128,128,0
5495,127,127,127,128,135,127,129,129,0
5499,128,129,128,126,130,128,124,127,0
5502,127,128,128,129,137,127,129,129,0
5505,122,124,126,129,134,125,128,129,0
5508,123,125,128,127,121,128,133,128,0
5512,131,131,127,125,123,128,130,128,0
5515,124,129,127,126,123,128,127,127,0
5518,132,128,128,127,126,129,127,126,0
5521,125,126,129,126,122,128,129,128,0
5524,131,129,128,128,123,127,126,128,0
5529,131,129,130,129,129,128,126,127,0
5534,123,127,127,127,125,127,128,126,0
5538,124,124,128,128,129,128,130,129,0
5541,128,129,128,127,127,128,127,128,0
5544,122,128,127,128,127,128,127,128,0
5548,120,127,127,126,123,128,127,126,0
5551,128,127,128,127,136,126,129,131,0
5554,126,127,125,130,137,126,127,130,0
5558,128,128,126,127,135,127,129,126,0
5562,134,127,128,126,122,128,128,126,0
5564,133,124,127,127,119,128,128,126,0
5567,128,130,127,126,122,127,128,126,0
5571,126,129,128,129,125,127,130,127,0
5573,129,127,128,128,127,129,125,129,0
5576,118,125,129,128,128,128,127,128,0
5579,129,128,129,127,126,128,125,128,0
5583,129,128,127,126,127,127,130,128,0
5586,124,123,129,129,128,128,126,126,0
5589,130,124,127,126,127,128,125,130,0
5593,125,130,126,126,123,128,128,128,0
5596,127,129,127,126,125,127,132,128,0
5599,119,124,127,126,123,128,128,126,0
5602,124,125,127,129,124,128,131,128,0
5606,127,130,128,128,126,127,129,129,0
5610,119,129,128,128,123,127,129,128,0
5613,122,128,127,129,136,125,130,131,0
5616,128,126,125,129,136,125,128,128,0
5620,123,127,128,128,119,127,130,126,0
5623,130,126,127,128,123,128,126,126,0
5627,128,128,127,128,126,128,128,126,0
5634,128,126,127,128,137,128,131,127,0
5640,129,129,127,128,123,128,127,127,0
5637,130,129,128,127,126,126,131,128,0
5643,130,128,128,128,128,128,125,126,0
5646,125,126,128,127,126,128,123,126,0
5650,124,127,129,128,130,128,125,126,0
5653,122,129,128,127,130,128,123,127,0
5657,126,128,127,128,129,128,125,129,0
5661,123,126,125,130,135,126,129,129,0
5665,122,127,126,128,120,128,131,128,0
5668,130,127,128,128,128,128,127,126,0
5672,134,126,127,128,127,128,127,126,0
5675,128,127,128,126,125,128,127,126,0
5678,128,129,126,128,122,128,130,129,0
5680,123,130,128,128,129,128,126,128,0
5683,129,126,128,128,138,128,128,127,0
5686,130,129,128,126,124,129,127,129,0
5689,129,128,128,128,128,128,126,127,0
5692,127,129,127,128,130,127,129,127,0
5695,126,128,126,130,138,127,128,130,0
5699,129,126,124,130,134,126,126,129,0
5701,123,126,127,128,115,129,126,126,0
5704,129,129,127,126,118,128,127,126,0
5707,134,128,127,127,122,128,127,126,0
5710,132,127,129,128,123,128,129,127,0
5713,128,126,128,126,123,128,131,129,0
5719,129,129,129,129,130,128,131,128,0
5725,128,128,128,126,130,127,129,128,0
5728,122,127,127,129,134,128,124,127,0
5731,131,124,129,128,129,128,124,127,0
5734,129,129,128,128,132,128,125,127,0
5737,130,126,127,126,127,128,129,128,0
5740,127,127,128,126,133,126,129,130,0
5743,121,125,126,129,135,126,130,130,0
5746,124,128,126,126,122,128,132,127,0
5750,131,128,127,125,122,128,128,127,0
5759,133,125,129,127,122,128,131,126,0
5764,125,126,127,126,123,127,127,126,0
5768,131,126,131,127,125,127,127,125,0
5772,133,126,128,128,128,128,128,130,0
5776,114,135,125,125,128,127,128,128,0
5780,120,128,127,127,127,127,129,128,0
5783,126,126,130,128,133,128,125,127,0
5788,128,128,127,127,128,127,126,130,0
5791,126,126,126,129,135,126,128,129,0
5794,127,124,126,128,133,126,131,131,0
5798,124,129,128,125,120,128,132,127,0
5801,133,129,127,125,120,128,127,127,0
5804,132,127,128,125,123,128,126,126,0
5807,129,126,129,127,121,127,132,127,0
5811,128,129,128,126,122,128,127,126,0
5815,124,129,127,128,126,127,132,127,0
5818,128,127,127,128,132,127,129,127,0
5823,118,125,126,130,136,126,127,130,0
5831,122,129,130,126,122,128,127,126,0
5835,134,125,127,126,121,128,127,126,0
5838,129,129,126,126,127,128,127,128,0
5842,127,127,126,129,137,130,126,127,0
5845,122,128,129,128,128,128,124,127,0
5849,128,128,129,127,124,127,129,127,0
5852,124,125,127,130,136,124,127,131,0
5855,124,126,125,128,136,126,127,128,0
5859,123,128,128,127,124,128,132,128,0
5861,128,129,128,125,121,128,125,127,0
5864,130,126,127,128,121,128,130,126,0
5868,130,126,128,126,123,127,130,127,0
5871,129,127,128,127,126,128,128,127,0
5873,129,130,130,128,129,129,127,129,0
5876,128,133,127,128,124,127,126,127,0
5880,123,127,126,126,133,128,126,128,0
5883,127,128,129,129,127,128,129,128,0
5887,125,129,128,128,123,127,129,127,0
5890,129,128,129,129,132,128,125,127,0
5893,123,127,127,127,132,129,129,129,0
5896,122,126,126,128,136,128,126,127,0
5899,130,129,128,126,122,128,125,126,0
5902,127,128,127,127,126,128,126,126,0
5904,127,125,126,129,137,126,126,130,0
5907,125,126,125,129,134,126,129,127,0
5910,134,129,128,125,121,127,128,127,0
5914,133,128,129,127,130,127,126,127,0
5918,129,127,128,125,122,127,128,127,0
5922,132,126,131,126,124,128,124,127,0
5925,125,129,129,126,126,127,128,128,0
5929,126,128,128,127,129,128,129,128,0
5932,129,127,127,126,125,127,128,127,0
5935,122,127,127,128,126,127,123,128,0
5938,125,129,128,128,125,128,128,128,0
5942,130,128,128,126,137,128,129,127,0
5945,128,127,128,126,135,128,129,127,0
5948,128,128,129,129,123,127,126,127,0
5951,124,129,126,130,134,126,129,129,0
5954,128,126,127,128,132,126,127,128,0
5957,127,126,126,128,130,127,129,128,0
5961,127,125,130,128,118,128,133,127,0
5966,127,131,130,125,119,128,131,127,0
5969,133,129,128,125,120,128,127,126,0
5972,132,128,128,126,121,128,129,127,0
5975,132,127,129,128,129,129,125,126,0
5979,128,127,130,128,124,127,130,128,0
5981,123,130,126,128,124,128,132,128,0
5984,127,128,126,128,131,129,126,127,0
5987,129,124,128,126,130,128,123,128,0
5990,131,129,129,128,127,128,124,126,0
5993,132,129,129,127,126,128,129,129,0
5996,123,127,127,126,123,127,129,127,0
5999,120,127,128,128,127,128,127,128,0
6005,127,128,130,127,129,128,129,128,0
6010,129,128,128,126,128,127,128,128,0
6014,126,127,127,128,128,128,129,128,0
6017,123,125,123,130,138,125,129,131,0
6021,125,128,126,126,123,127,132,127,0
6023,128,129,127,126,122,128,131,127,0
6026,133,128,128,126,126,128,127,127,0
6030,131,127,127,128,126,128,131,127,0
6034,124,125,127,130,137,125,123,127,0
6038,136,126,128,125,123,128,128,128,0
6043,125,129,126,128,128,128,127,127,0
6046,127,123,127,127,124,128,124,126,0
6050,130,132,127,127,126,128,128,129,0
6062,126,129,127,128,124,128,126,129,0
6065,127,128,127,130,140,126,129,130,0
6070,126,125,126,129,137,126,129,128,0
6073,125,128,129,128,122,127,132,127,0
6076,129,129,128,126,122,127,130,127,0
6081,130,128,128,128,123,128,129,126,0
6084,132,128,129,128,127,128,127,126,0
6088,129,127,129,128,122,128,127,126,0
6091,130,128,130,129,127,129,124,127,0
6095,123,127,127,128,125,128,124,127,0
6098,124,128,129,129,138,126,130,130,0
6101,119,125,128,128,125,127,127,127,0
6104,128,128,130,128,127,128,129,127,0
6108,125,127,129,128,126,128,129,128,0
6112,127,128,127,128,138,127,128,130,0
6117,127,127,126,130,135,126,130,128,0
6120,133,130,129,126,120,127,129,126,0
6123,129,129,127,126,121,127,131,127,0
6126,130,126,128,128,126,128,129,127,0
6129,132,128,128,126,126,128,123,126,0
6132,126,129,129,127,125,128,126,126,0
6135,127,128,128,126,124,126,126,129,0
6138,128,125,125,129,136,127,124,129,0
6140,127,128,128,128,120,128,129,126,0
6143,131,129,129,127,120,128,131,126,0
6147,128,128,127,127,125,128,128,127,0
6150,130,126,128,127,129,128,124,126,0
6154,129,124,129,126,126,129,124,128,0
6157,128,130,129,126,128,128,127,127,0
6163,129,127,127,128,127,128,127,128,0
6166,122,127,127,126,130,129,122,126,0
6169,125,127,128,128,128,128,123,128,0
6172,128,129,127,128,127,127,125,127,0
6175,123,128,127,126,127,128,129,128,0
6179,120,126,125,129,139,126,130,129,0
6182,125,126,126,129,136,128,129,127,0
6185,131,130,128,126,122,128,128,127,0
6187,133,129,129,126,123,128,124,127,0
6190,128,128,128,127,121,129,123,125,0
6193,129,126,129,126,123,128,123,126,0
6198,134,129,129,128,122,128,128,126,0
6201,124,129,128,126,126,128,123,126,0
6206,125,126,125,129,136,126,129,130,0
6212,129,126,125,129,127,128,131,127,0
6215,133,127,131,126,121,127,130,127,0
6219,126,127,129,128,138,127,130,127,0
6225,134,125,125,128,126,128,128,128,0
6228,119,129,126,128,123,128,131,128,0
6231,124,129,126,126,127,127,128,127,0
6237,123,129,127,126,126,128,125,127,0
6240,125,127,126,129,126,128,125,127,0
6245,129,127,128,128,127,128,124,126,0
6249,123,127,129,126,139,128,126,126,0
6252,131,126,129,127,126,128,129,128,0
6256,124,131,126,125,127,128,129,128,0
6260,122,127,126,128,139,126,129,131,0
6263,123,127,126,129,137,127,131,129,0
6267,132,129,126,128,122,127,132,128,0
6270,130,128,129,125,126,128,125,127,0
6274,132,125,127,128,123,128,128,127,0
6277,122,128,127,128,124,127,129,128,0
6280,125,130,128,128,125,128,128,128,0
6283,132,128,128,126,130,128,122,126,0
6285,128,125,128,128,129,129,123,128,0
6288,121,127,129,126,126,128,125,127,0
6291,127,129,127,128,127,127,125,127,0
6293,130,125,127,129,135,129,124,126,0
6296,131,128,127,128,122,128,128,127,0
6301,124,128,127,129,137,126,126,127,0
6308,131,129,128,128,124,128,127,128,0
6310,134,129,128,129,125,130,124,127,0
6313,134,128,129,128,127,127,129,127,0
6318,125,127,128,126,125,128,124,127,0
6320,128,129,129,128,121,127,126,128,0
6323,128,129,127,128,138,126,126,130,0
6326,130,126,124,129,135,124,133,129,0
6329,124,127,126,129,132,127,132,126,0
6331,128,129,129,125,121,128,125,126,0
6334,130,127,127,128,120,128,130,125,0
6337,129,126,127,128,125,127,129,126,0
6340,129,126,129,126,124,128,127,129,0
6343,129,132,128,125,127,129,125,128,0
6346,128,128,125,128,130,128,127,127,0
6349,132,124,127,127,135,128,130,128,0
6352,131,129,128,126,131,128,123,128,0
6359,126,130,127,127,131,127,131,128,0
6362,130,128,127,128,131,128,128,128,0
6365,128,127,130,129,132,130,128,130,0
6367,123,126,126,129,137,130,123,126,0
6372,130,129,128,126,119,127,127,125,0
6375,128,128,129,128,124,128,126,125,0
6377,129,124,127,129,135,126,128,129,0
6381,129,126,126,129,134,126,125,127,0
6385,134,127,128,128,120,128,128,126,0
6389,133,125,127,128,121,128,126,126,0
6394,125,129,128,128,120,128,128,126,0
6399,127,125,129,128,124,127,130,128,0
6403,122,128,127,128,136,127,128,128,0
6406,131,129,127,126,123,127,130,128,0
6409,129,127,127,127,127,129,123,125,0
6412,124,127,127,128,130,128,128,127,0
6415,128,129,131,127,128,128,122,128,0
6418,128,128,128,127,126,128,126,127,0
6422,124,127,126,126,130,127,127,129,0
6425,119,127,127,128,131,127,127,128,0
6428,132,129,129,128,128,127,123,127,0
6431,130,129,127,129,138,126,127,131,0
6433,128,126,125,129,134,126,128,128,0
6436,123,125,128,127,122,129,130,126,0
6439,127,128,128,125,123,128,129,127,0
6442,133,129,129,127,121,127,129,127,0
6444,133,128,128,128,131,130,127,127,0
6447,128,126,126,128,124,127,125,127,0
6451,128,128,127,126,126,128,129,128,0
6454,131,127,128,129,133,128,126,126,0
6458,123,125,127,128,125,128,126,127,0
6461,123,127,129,126,123,128,124,126,0
6464,121,128,128,126,126,127,129,128,0
6467,129,128,129,128,125,128,123,127,0
6470,130,125,127,128,134,128,129,127,0
6474,122,127,125,129,136,125,128,130,0
6477,127,128,125,128,137,128,128,127,0
6481,128,129,128,127,124,128,131,127,0
6487,129,128,127,127,125,128,128,126,0
6494,133,126,128,126,122,129,123,126,0
6498,132,128,129,127,124,127,128,128,0
6501,126,128,129,128,123,128,126,126,0
6504,128,127,125,129,127,129,126,129,0
6507,120,127,127,128,131,128,124,126,0
6511,130,127,128,129,129,128,128,127,0
6514,124,131,129,127,126,128,124,128,0
6517,129,126,127,130,139,127,128,129,0
6520,127,127,126,129,133,127,125,127,0
6523,123,127,126,129,131,129,133,127,0
6527,134,129,128,127,119,127,131,126,0
6531,127,128,127,125,126,127,131,126,0
6534,127,127,127,128,123,128,126,126,0
6537,129,127,127,126,121,128,128,126,0
6540,129,129,130,126,123,127,131,128,0
6543,127,129,128,128,127,128,126,129,0
6546,118,127,125,129,138,127,123,127,0
6549,131,123,128,126,128,128,124,126,0
6552,128,129,127,128,126,128,127,127,0
6557,126,128,127,126,123,127,131,127,0
6561,120,127,126,130,136,127,126,129,0
6564,125,126,126,129,135,126,131,130,0
6567,122,130,129,125,120,127,130,127,0
6570,131,128,131,126,121,128,126,125,0
6573,129,129,127,127,124,128,130,127,0
6579,129,128,127,127,127,128,127,128,0
6583,131,128,128,128,130,128,125,129,0
6586,128,130,127,128,127,128,128,129,0
6589,128,128,129,129,139,127,130,130,0
6592,124,125,126,128,138,129,129,127,0
6595,130,129,128,127,125,128,127,127,0
6597,126,129,127,128,126,128,125,126,0
6600,125,126,127,126,128,128,128,127,0
6603,132,125,128,126,133,127,128,128,0
6606,122,132,127,128,126,127,123,128,0
6609,129,129,128,128,128,128,129,126,0
6612,124,124,125,130,135,125,126,130,0
6616,123,125,125,129,134,125,126,127,0
6619,130,129,128,128,123,127,130,127,0
6622,132,126,128,125,122,128,130,128,0
6626,125,127,127,126,123,128,130,127,0
6630,131,127,128,128,122,128,126,126,0
6633,127,128,131,128,123,128,127,126,0
6635,128,129,127,126,127,128,126,127,0
6639,124,127,127,128,135,127,128,126,0
6642,129,126,128,128,122,127,129,127,0
6645,118,128,127,126,125,128,129,128,0
6648,131,128,127,128,129,127,127,127,0
6655,122,127,128,128,139,129,123,130,0
6662,124,126,126,130,137,126,128,129,0
6669,125,127,125,129,133,126,132,130,0
6674,121,128,129,126,123,128,127,127,0
6679,134,127,129,127,126,128,126,125,0
6682,137,126,128,127,119,128,126,125,0
6685,125,126,129,126,124,128,127,127,0
6690,130,130,130,128,123,128,125,128,0
6693,127,130,129,127,131,128,128,128,0
6696,131,127,127,126,123,128,124,126,0
6700,126,128,128,127,128,128,126,127,0
6703,125,129,129,127,125,127,128,128,0
6706,126,127,128,129,135,128,129,128,0
6710,122,127,125,128,134,125,132,129,0
6713,123,127,126,129,135,125,126,129,0
6716,132,129,127,127,121,127,131,128,0
6721,133,127,127,125,120,128,130,127,0
6724,134,126,128,128,120,128,126,127,0
6727,132,126,130,128,123,128,126,128,0
6729,127,129,127,128,125,127,127,127,0
6732,128,128,127,128,125,128,130,128,0
6735,127,127,128,128,125,127,126,129,0
6738,130,127,129,128,128,127,129,128,0
6741,128,128,127,129,131,127,124,128,0
6745,124,128,127,128,137,129,123,129,0
6748,127,123,126,130,140,127,129,130,0
6753,124,126,127,127,122,128,129,127,0
6756,130,129,127,126,123,128,124,127,0
6762,130,129,129,126,124,128,128,126,0
6766,125,126,127,128,126,128,126,126,0
6771,129,126,127,128,124,128,126,129,0
6775,129,130,130,127,124,128,126,127,0
6778,124,128,128,128,126,128,128,127,0
6780,124,127,127,128,126,128,128,126,0
6783,122,126,127,130,135,126,130,129,0
6786,128,126,127,129,134,128,132,128,0
6792,129,130,129,126,123,128,126,126,0
6796,128,126,127,126,125,128,123,126,0
6799,132,122,129,127,126,128,129,129,0
6802,127,131,127,125,123,128,130,129,0
6806,124,131,129,129,138,126,126,130,0
6809,125,126,126,129,137,125,126,129,0
6813,122,127,127,127,124,129,131,128,0
6816,129,129,129,125,125,128,126,127,0
6821,132,127,127,128,127,128,126,126,0
6824,125,127,126,128,121,128,127,126,0
6829,129,127,127,128,124,127,128,128,0
6833,127,129,128,127,123,127,131,128,0
6837,130,128,130,127,129,128,126,126,0
6840,126,126,128,128,128,128,126,126,0
6843,129,123,127,126,122,128,128,127,0
6847,123,128,127,126,126,128,127,127,0
6850,121,129,127,127,127,127,128,127,0
6854,120,126,128,128,125,127,128,127,0
6859,126,125,126,129,135,127,129,131,0
6865,125,128,129,125,119,128,130,127,0
6872,127,129,127,128,124,128,127,126,0
6876,126,127,127,128,124,127,131,127,0
6880,128,127,128,129,137,126,126,129,0
6883,121,127,128,128,122,128,126,126,0
6886,130,126,127,126,124,128,126,128,0
6890,135,127,128,128,124,128,128,127,0
6893,132,128,128,128,126,128,126,128,0
6897,118,128,128,127,125,128,130,128,0
6901,124,129,127,128,123,128,126,128,0
6904,129,128,128,129,135,128,126,128,0
6907,125,126,124,129,135,126,127,129,0
6909,121,126,127,128,120,128,124,125,0
6912,134,130,129,126,121,128,127,126,0
6915,131,128,127,128,122,127,131,127,0
6919,128,127,129,126,126,128,125,126,0
6922,134,122,129,128,122,128,128,128,0
6925,127,130,127,126,133,128,127,127,0
6928,129,128,127,128,128,128,130,128,0
6931,127,127,127,127,126,128,123,126,0
6934,119,128,127,129,130,127,124,129,0
6937,127,129,129,127,133,128,125,127,0
6940,123,128,126,127,130,128,124,130,0
6943,128,120,126,130,133,125,128,129,0
6947,123,126,126,128,135,128,128,127,0
6951,127,129,129,128,125,127,128,126,0
6957,132,127,128,126,128,128,128,125,0
6967,132,125,129,128,123,128,127,127,0
6971,123,126,128,127,122,127,132,128,0
6974,128,131,127,128,124,128,131,128,0
6977,131,129,128,126,123,128,123,126,0
6982,127,127,127,126,123,128,126,128,0
6985,128,128,129,128,124,128,127,127,0
6989,122,128,128,126,124,128,131,128,0
6992,126,128,128,128,131,127,126,126,0
6995,128,127,129,130,136,126,128,129,0
6999,125,125,126,129,136,126,129,128,0
7002,136,125,128,128,127,128,129,128,0
7005,121,131,127,127,121,128,132,128,0
7008,132,126,127,126,139,129,122,126,0
7013,127,127,127,126,125,127,131,128,0
7016,127,129,127,129,126,127,125,127,0
7019,123,129,130,127,128,128,127,127,0
7022,126,125,128,128,128,128,128,127,0
7025,137,122,126,127,125,128,126,128,0
7029,130,129,127,126,127,127,128,127,0
7032,122,127,127,130,138,126,126,131,0
7036,127,127,124,129,136,126,127,127,0
7039,131,126,130,127,123,128,127,126,0
7042,132,130,127,128,124,128,127,127,0
7045,129,129,129,128,126,127,127,127,0
7048,120,123,128,126,121,128,124,127,0
7051,129,127,127,128,125,128,129,127,0
7054,130,128,128,127,127,127,127,128,0
7058,123,130,127,126,128,127,128,128,0
7063,126,127,127,127,128,128,128,127,0
7068,125,126,127,127,124,128,126,127,0
7074,122,129,128,126,128,127,125,127,0
7077,125,128,127,128,129,128,125,128,0
7081,121,127,126,129,139,124,129,130,0
7084,127,126,125,129,133,126,131,129,0
7088,135,129,129,127,121,128,131,128,0
7091,134,129,129,127,120,128,131,127,0
7094,132,128,127,125,122,128,130,127,0
7097,133,127,128,125,122,128,125,126,0
7100,126,127,130,128,128,128,127,127,0
7104,126,129,127,127,126,127,124,126,0
7107,125,127,127,128,138,128,127,126,0
7110,131,127,129,129,136,128,128,127,0
7113,130,129,128,128,126,128,124,127,0
7116,124,128,128,127,128,129,122,126,0
7119,127,128,128,128,129,128,124,126,0
7123,127,126,127,129,134,128,129,127,0
7126,134,128,127,126,125,127,125,127,0
7130,118,128,128,127,125,127,127,130,0
7132,128,128,125,129,137,124,129,130,0
7136,125,129,124,129,133,125,126,128,0
7139,127,129,128,127,119,127,130,127,0
7141,133,129,128,128,122,128,127,126,0
7145,131,128,127,125,122,129,129,127,0
7148,132,127,128,128,122,128,127,128,0
7152,126,126,128,126,125,128,131,129,0
7155,128,129,127,125,128,127,130,128,0
7159,130,129,128,125,125,128,125,127,0
7162,131,127,129,128,129,127,129,127,0
7166,126,127,128,128,120,128,129,127,0
7172,129,130,127,126,127,128,128,128,0
7175,128,125,127,129,139,126,129,129,0
7179,124,126,126,129,137,127,123,127,0
7181,128,127,128,126,123,128,127,128,0
7184,129,129,128,126,124,128,126,127,0
7188,128,128,129,129,129,128,126,125,0
7190,126,126,127,128,128,128,122,125,0
7194,123,129,127,126,125,128,129,128,0
7197,130,126,127,127,124,127,128,129,0
7200,124,132,127,128,133,128,131,129,0
7205,123,127,125,128,136,125,128,130,0
7209,123,126,125,129,136,129,128,127,0
7212,129,128,130,128,121,128,129,126,0
7217,124,129,127,128,130,128,128,128,0
7222,125,127,127,128,126,128,128,129,0
7225,128,127,128,126,124,127,131,128,0
7229,128,129,129,128,122,127,126,126,0
7232,134,126,129,127,128,129,124,127,0
7235,133,128,129,129,129,128,127,128,0
7238,130,129,127,128,129,128,126,127,0
7242,128,130,128,126,129,128,128,127,0
7245,128,129,128,128,123,128,123,128,0
7248,129,127,127,129,132,127,126,130,0
7251,126,126,125,130,136,126,127,129,0
7255,125,127,128,128,121,127,133,128,0
7258,133,128,128,126,124,127,128,126,0
7262,126,127,126,128,125,127,129,126,0
7270,125,127,127,129,127,127,130,128,0
7274,133,129,129,128,132,128,129,129,0
7278,131,125,127,126,128,127,129,128,0
7282,127,127,128,128,128,128,124,129,0
7286,126,125,128,128,129,127,129,129,0
7290,119,128,127,128,127,127,129,129,0
7293,128,128,128,128,124,127,126,126,0
7297,125,128,127,129,137,125,130,129,0
7301,126,126,125,129,136,126,127,129,0
7303,129,127,129,126,122,129,129,127,0
7306,133,129,128,128,124,130,129,127,0
7310,129,128,127,128,124,130,130,127,0
7314,127,126,127,128,125,127,130,128,0
7317,126,129,129,127,130,127,130,128,0
7321,131,130,129,128,128,127,127,128,0
7324,125,128,127,128,125,127,128,127,0
7327,127,125,126,126,124,128,127,127,0
7330,130,126,128,127,127,127,126,127,0
7333,133,129,129,127,126,128,123,126,0
7337,126,127,127,129,126,128,131,127,0
7340,125,128,127,129,130,127,129,127,0
7343,131,124,128,127,128,128,125,129,0
7346,127,131,127,128,126,128,126,129,0
7349,122,128,126,129,138,125,131,130,0
7353,130,125,126,129,134,126,126,129,0
7357,125,127,128,127,121,127,131,128,0
7360,126,132,129,126,122,129,125,127,0
7363,131,127,128,128,130,128,126,127,0
7366,133,125,127,127,123,127,131,127,0
7369,129,127,128,128,124,128,128,126,0
7372,128,129,128,127,127,128,127,126,0
7375,127,127,127,128,129,128,128,128,0
7380,123,127,127,128,129,128,127,128,0
7385,129,127,127,129,129,128,124,128,0
7391,128,129,129,129,131,128,127,128,0
7395,124,127,127,129,136,128,127,128,0
7398,122,127,127,129,138,126,131,130,0
7401,128,126,125,129,136,127,134,130,0
7404,129,126,127,128,121,128,131,127,0
7408,133,129,126,128,122,129,126,125,0
7411,127,125,127,128,125,127,130,127,0
7415,132,129,127,127,121,128,129,127,0
7418,122,129,127,128,129,128,126,128,0
7421,130,128,128,127,133,128,125,128,0
7423,125,127,128,128,127,128,126,126,0
7426,126,127,127,126,123,128,127,127,0
7429,126,129,128,127,132,127,129,128,0
7432,126,129,126,129,128,128,124,129,0
7434,121,126,126,129,136,126,127,130,0
7437,125,126,125,128,135,127,128,127,0
7441,130,129,128,125,127,128,127,126,0
7444,123,129,127,128,125,128,126,127,0
7448,128,126,127,128,125,127,130,127,0
7451,135,125,128,128,124,128,126,127,0
7455,126,127,129,126,124,127,129,129,0
7458,129,128,127,126,127,127,127,128,0
7461,128,129,128,128,132,129,125,126,0
7465,123,127,126,129,134,126,126,128,0
7468,124,129,129,126,121,129,128,126,0
7471,129,129,129,128,126,128,127,126,0
7474,123,127,127,130,136,128,127,125,0
7478,126,126,127,128,126,127,122,127,0
7484,127,128,129,128,132,127,126,126,0
7488,123,129,127,128,129,128,125,126,0
7491,125,128,126,130,138,124,128,130,0
7494,128,124,125,129,136,126,127,129,0
7497,129,128,128,128,124,128,127,126,0
7500,128,127,128,127,130,128,127,127,0
7506,128,129,127,125,128,128,132,127,0
7509,131,126,128,127,121,128,127,127,0
7512,132,127,128,128,127,127,128,126,0
7515,129,128,126,128,122,128,123,126,0
7520,127,126,129,128,123,127,129,127,0
7545,124,128,127,126,123,128,127,128,0
7551,119,128,128,128,124,128,128,128,0
7554,126,130,128,128,126,128,127,127,0
7559,129,128,128,128,123,128,124,127,0
7564,134,124,128,127,125,127,126,128,0
7613,120,128,126,126,127,127,129,128,0
7619,125,128,126,128,130,127,128,128,0
7626,128,127,128,128,124,128,124,127,0
7631,128,124,126,129,133,124,131,132,0
7636,120,130,126,129,135,126,126,128,0
7682,134,130,128,128,120,128,131,127,0
7693,130,127,127,128,123,128,130,127,0
7706,131,126,128,126,130,128,127,126,0
7700,128,127,128,126,122,128,126,127,0
7713,126,128,127,129,132,128,128,127,0
7752,127,129,128,126,125,128,127,127,0
7769,129,127,127,129,140,127,128,129,0
7779,128,126,126,129,137,129,131,127,0
7818,132,129,128,126,121,128,127,126,0
7828,126,126,127,128,122,127,130,126,0
7837,126,127,127,129,132,128,125,127,0
7842,130,128,128,126,124,128,125,127,0
7847,125,129,129,126,125,128,129,128,0
7852,124,128,127,128,130,128,126,127,0
7856,130,126,128,128,130,127,131,127,0
7859,125,127,126,129,136,128,127,130,0
7862,122,129,127,126,124,127,130,128,0
7866,130,128,128,128,125,127,126,127,0
7869,124,127,124,129,135,124,130,130,0
7878,123,126,126,128,123,128,131,128,0
7882,130,129,127,127,125,128,127,126,0
7887,133,126,129,128,123,127,130,128,0
7890,127,130,127,126,123,129,127,126,0
7894,127,123,127,128,125,128,129,127,0
7897,126,128,127,127,125,127,129,128,0
7901,131,127,130,128,128,129,123,126,0
7904,126,126,127,128,124,127,130,127,0
7908,123,127,127,128,124,127,128,126,0
7911,124,129,127,128,125,128,127,126,0
7914,128,128,127,126,124,128,131,127,0
7918,122,127,125,128,134,125,129,130,0
7922,123,125,125,128,126,128,128,127,0
7928,132,128,127,128,122,127,132,128,0
7931,128,128,128,126,125,128,127,128,0
7934,130,126,129,126,124,128,127,126,0
7937,122,126,128,126,126,128,124,127,0
7941,133,131,128,128,126,127,130,128,0
7944,128,129,128,128,128,128,125,127,0
7947,129,127,128,126,125,128,126,126,0
7951,121,125,128,126,125,128,127,127,0
7954,132,128,128,127,124,128,124,129,0
7957,122,129,127,126,125,127,129,127,0
7960,128,127,129,128,126,129,125,126,0
7964,123,125,126,129,136,125,127,130,0
7966,124,129,131,127,120,127,133,127,0
7971,133,131,127,126,121,127,132,128,0
7974,132,124,127,128,125,127,128,126,0
7977,128,127,127,128,123,127,128,128,0
7980,127,127,127,128,127,127,129,129,0
7983,126,129,127,126,124,127,127,128,0
7986,126,127,127,128,128,128,127,128,0
7989,129,125,126,129,138,126,128,130,0
7993,124,128,127,128,127,127,130,128,0
7995,134,130,128,128,121,127,129,128,0
7999,133,128,128,127,136,129,122,126,0
8002,130,127,127,126,123,128,125,127,0
8004,131,126,127,126,127,128,128,127,0
8008,126,128,127,126,124,127,129,127,0
8018,125,128,128,126,128,128,124,126,0
8022,128,124,127,129,138,124,129,129,0
8027,125,124,126,129,136,128,128,127,0
8035,132,129,129,128,125,128,129,129,0
8039,125,130,127,126,127,128,132,127,0
8042,132,128,128,126,124,128,125,128,0
8089,129,128,129,126,130,127,128,127,0
8100,128,128,127,126,123,127,129,128,0
8108,128,127,128,128,131,128,125,126,0
8116,129,124,128,126,129,128,131,128,0
8121,119,129,126,126,123,127,126,127,0
8125,123,128,127,129,136,127,125,128,0
8129,122,130,127,127,128,127,124,128,0
8133,121,128,127,126,123,127,130,128,0
8137,130,127,128,128,125,127,124,127,0
8140,126,130,128,128,130,127,131,130,0
8143,129,126,124,129,136,126,126,130,0
8146,127,126,125,129,132,126,129,126,0
8150,133,127,130,127,120,128,133,127,0
8153,132,129,128,128,127,128,128,126,0
8157,129,128,129,128,124,128,130,126,0
8160,128,127,128,126,129,129,127,127,0
8163,129,126,127,127,125,128,128,128,0
8167,128,127,131,128,123,128,126,128,0
8175,131,128,129,126,125,128,125,127,0
8179,132,127,128,126,123,128,127,126,0
8183,122,126,127,128,128,128,129,127,0
8187,123,128,127,128,129,127,128,127,0
8190,124,129,127,126,128,127,125,127,0
8193,128,128,127,128,124,128,125,129,0
8200,123,126,126,130,134,125,126,128,0
8203,133,129,128,127,122,128,130,127,0
8207,130,128,128,128,124,128,128,126,0
8210,131,127,127,129,124,129,126,126,0
8213,125,127,129,127,131,128,126,127,0
8217,127,130,127,128,132,127,126,126,0
8220,129,128,127,126,128,127,129,128,0
8223,123,128,127,129,139,124,131,131,0
8225,127,126,125,128,137,126,126,130,0
8228,126,129,128,128,121,128,128,126,0
8231,128,128,129,128,123,128,130,128,0
8234,131,128,127,127,130,128,131,127,0
8237,128,128,129,126,123,129,125,127,0
8241,134,127,129,127,120,127,129,127,0
8243,132,128,128,128,123,128,125,126,0
8247,128,128,127,127,125,128,127,128,0
8250,126,127,128,130,138,128,126,127,0
8253,125,129,127,126,127,128,127,128,0
8256,130,128,127,125,124,127,128,128,0
8261,127,127,128,128,139,127,131,130,0
8263,121,126,126,129,136,126,128,128,0
8266,130,129,129,126,128,129,126,128,0
8289,132,128,128,128,123,128,128,126,0
8294,132,128,129,128,126,127,130,128,0
8297,128,127,127,127,124,127,128,127,0
8300,131,127,130,128,127,128,124,128,0
8303,125,130,127,128,137,128,126,127,0
8360,131,129,129,126,134,127,131,127,0
8374,130,126,128,128,126,128,131,128,0
8381,118,125,126,128,121,128,128,127,0
8386,130,129,127,128,125,127,124,128,0
8391,131,127,126,129,135,127,130,130,0
8395,127,127,127,128,134,126,129,129,0
8398,127,126,125,128,132,125,124,127,0
8402,132,129,130,125,119,128,129,128,0
8405,129,130,127,127,123,128,129,127,0
8408,132,127,128,125,129,127,131,127,0
8412,130,129,127,128,122,128,126,126,0
8415,126,128,129,127,128,127,127,127,0
8418,130,128,128,128,129,128,125,126,0
8422,130,127,128,128,130,128,126,127,0
8425,132,128,131,128,120,127,128,127,0
8429,128,129,127,127,129,127,128,127,0
8432,132,128,129,128,129,128,126,126,0
8435,123,126,128,129,138,125,126,131,0
8439,126,126,126,130,136,126,129,130,0
8444,128,126,130,127,121,128,132,128,0
8446,129,130,129,128,128,128,127,127,0
8449,129,126,127,126,120,128,127,126,0
8454,132,126,130,129,132,128,131,129,0
8457,128,130,128,128,125,128,129,128,0
8460,129,129,127,129,127,128,123,128,0
8463,131,127,128,128,123,128,128,126,0
8467,123,125,126,128,129,127,129,128,0
8470,134,129,128,128,126,128,128,127,0
8480,128,128,129,127,121,128,124,125,0
8487,126,124,127,129,137,126,130,130,0
8492,128,125,125,129,133,125,131,129,0
8497,122,128,130,127,124,127,128,127,0
8501,134,131,129,127,125,127,130,128,0
8504,132,126,128,128,124,128,127,127,0
8508,129,126,126,128,125,128,130,128,0
8511,129,130,128,127,126,128,124,127,0
8514,125,129,127,127,125,127,128,128,0
8518,127,128,128,126,127,128,125,127,0
8520,127,127,128,128,128,128,128,128,0
8523,127,128,130,129,134,127,128,127,0
8527,130,129,127,127,126,128,123,127,0
8530,120,125,127,129,138,126,130,130,0
8533,123,126,127,129,134,126,132,130,0
8536,128,129,126,128,118,127,130,127,0
8540,127,128,128,127,121,127,131,127,0
8543,134,126,127,125,123,128,126,126,0
8546,127,127,127,128,136,127,122,126,0
8550,132,129,130,126,124,128,125,128,0
8554,123,129,129,129,129,129,124,127,0
8556,132,125,130,128,128,129,126,129,0
8560,121,129,127,128,125,128,127,127,0
8562,127,129,127,126,125,127,124,128,0
8565,124,128,128,128,126,127,128,127,0
8569,128,126,127,127,125,128,129,128,0
8572,124,128,128,128,126,129,128,128,0
8576,125,130,127,126,125,127,124,127,0
8580,125,129,127,127,133,128,128,127,0
8583,126,127,127,130,139,124,131,130,0
8586,128,126,125,129,134,126,130,129,0
8591,128,128,127,128,124,129,131,128,0
8595,131,129,128,125,126,127,131,127,0
8601,130,128,127,126,120,127,130,127,0
8604,134,128,127,128,126,129,126,127,0
8607,129,129,130,126,125,128,125,126,0
8610,124,126,128,127,121,128,126,127,0
8613,129,128,127,128,123,128,130,128,0
8616,125,127,127,126,124,127,127,128,0
8620,129,127,128,127,127,127,126,128,0
8623,129,129,128,127,126,127,128,128,0
8626,127,127,129,129,130,128,127,127,0
8629,132,127,125,129,137,125,132,130,0
8632,124,127,125,129,136,128,127,127,0
8635,128,129,128,128,123,128,128,127,0
8638,126,127,129,127,123,128,127,127,0
8642,127,128,127,127,126,129,126,127,0
8645,125,128,128,127,129,127,127,128,0
8648,128,129,127,128,125,127,128,128,0
8651,129,127,126,128,127,128,129,126,0
8654,126,126,127,128,138,129,124,128,0
8657,129,129,127,126,127,128,128,127,0
8660,120,129,127,126,125,129,124,129,0
8663,130,128,128,128,133,128,129,127,0
8667,132,127,128,128,127,127,127,126,0
8671,128,128,128,129,129,128,129,128,0
8674,124,128,127,127,123,128,130,128,0
8676,126,127,129,129,139,125,132,131,0
8680,130,125,125,129,136,125,128,130,0
8683,120,129,126,127,121,128,129,127,0
8688,132,130,127,125,119,127,132,127,0
8695,132,128,127,126,124,129,124,126,0
8699,133,126,127,127,126,128,125,125,0
8703,120,127,129,128,128,128,128,126,0
8707,131,129,129,127,126,128,127,127,0
8711,125,126,128,127,124,128,124,128,0
8715,132,127,128,125,122,127,122,125,0
8717,128,127,129,127,131,127,130,127,0
8720,131,129,128,128,127,128,128,127,0
8724,130,125,128,128,123,128,127,127,0
8728,127,126,127,128,127,128,127,127,0
8731,130,126,127,129,138,126,127,130,0
8734,122,126,126,129,135,127,132,126,0
8737,131,129,127,128,121,127,131,128,0
8740,126,128,128,126,124,127,131,128,0
8743,130,129,128,126,123,128,129,128,0
8746,128,129,127,127,130,127,127,129,0
8749,129,128,128,128,128,128,126,128,0
8753,132,127,127,128,127,128,128,127,0
8756,128,127,127,130,136,126,128,129,0
8759,126,128,126,130,136,126,130,130,0
8763,121,129,128,126,123,128,126,127,0
8766,133,129,129,128,120,128,129,125,0
8769,134,127,128,126,121,128,126,127,0
8772,131,128,129,128,129,128,127,127,0
8778,126,129,127,126,126,127,129,128,0
8785,130,128,129,128,125,128,124,126,0
8790,124,127,129,128,125,128,123,127,0
8795,126,127,129,126,128,128,128,128,0
8802,127,129,128,128,132,127,126,127,0
8806,126,127,126,129,138,125,131,130,0
8809,128,126,125,127,136,126,126,127,0
8813,133,128,130,128,122,128,127,127,0
8816,131,128,127,128,122,127,131,128,0
8820,130,130,129,126,125,129,127,126,0
8823,128,126,129,128,121,128,127,126,0
8826,127,128,127,129,123,128,127,126,0
8830,126,129,129,128,124,127,131,127,0
8833,129,128,128,128,123,128,123,127,0
8836,129,125,128,128,127,128,130,127,0
8840,129,127,128,129,123,127,131,128,0
8842,127,127,129,128,138,126,129,130,0
8845,122,125,127,129,136,126,128,131,0
8848,124,130,127,125,120,128,127,127,0
8851,132,128,127,127,126,128,128,127,0
8857,129,129,127,126,129,127,131,128,0
8861,126,128,128,128,122,128,125,126,0
8865,126,126,127,126,127,128,125,129,0
8868,123,126,127,126,130,127,132,129,0
8871,133,129,130,128,124,127,129,128,0
8874,130,128,128,128,129,128,124,126,0
8877,126,124,129,129,135,126,124,129,0
8881,125,126,127,129,136,126,123,128,0
8884,133,131,128,125,122,127,132,128,0
8887,134,127,127,126,126,128,124,126,0
8890,127,127,127,128,123,128,125,129,0
8895,124,127,127,126,121,128,130,128,0
8901,133,129,127,128,125,128,125,127,0
8906,127,129,127,129,130,129,124,129,0
8910,125,125,125,129,136,126,127,130,0
8913,124,126,126,128,121,128,130,127,0
8916,128,129,128,125,124,127,128,126,0
8920,129,128,127,125,121,127,129,127,0
8923,129,127,126,126,129,127,131,127,0
8926,129,127,128,127,125,128,126,128,0
8929,131,128,128,126,125,127,128,126,0
8932,131,127,127,127,129,127,128,129,0
8935,124,128,128,128,138,127,123,128,0
8938,120,130,126,128,124,127,127,127,0
8941,125,131,127,129,129,127,126,128,0
8944,130,129,128,129,125,129,125,129,0
8947,121,128,128,127,129,129,124,127,0
8950,126,127,127,126,125,128,129,127,0
8953,128,129,127,128,126,128,129,128,0
8956,129,128,127,128,127,127,129,127,0
8960,128,126,127,128,139,126,128,129,0
8962,123,125,124,129,135,124,126,130,0
8966,123,128,129,127,127,128,128,126,0
8970,129,128,128,128,129,128,127,127,0
8973,132,125,127,128,129,129,128,126,0
8977,129,128,126,128,123,127,132,127,0
8980,134,128,129,127,125,128,128,127,0
8985,129,129,128,128,127,128,128,128,0
8988,126,130,127,127,128,128,131,127,0
8992,127,124,126,129,137,126,127,130,0
8999,123,127,127,125,121,128,130,126,0
9003,133,127,129,128,120,127,128,126,0
9006,128,128,127,128,126,128,130,127,0
9012,128,126,128,128,124,128,124,128,0
9015,123,128,128,128,124,128,128,127,0
9020,126,129,127,128,124,127,131,129,0
9023,119,128,127,126,128,127,126,128,0
9026,121,125,127,126,126,128,123,126,0
9030,127,128,129,129,130,127,130,128,0
9033,128,128,129,128,135,128,126,128,0
9036,126,128,128,128,135,127,128,131,0
9039,129,127,124,129,134,127,125,129,0
9042,127,127,126,129,126,128,133,127,0
9045,131,129,130,126,122,128,126,125,0
9048,129,128,129,128,126,128,124,125,0
9051,133,128,128,126,122,129,126,127,0
9054,131,128,128,128,128,128,126,127,0
9059,128,128,128,128,128,128,123,128,0
9063,132,129,130,128,125,128,127,128,0
9065,126,125,128,128,123,128,128,126,0
9069,129,127,128,129,126,128,129,128,0
9073,127,129,128,127,127,127,126,130,0
9076,123,127,125,129,136,126,126,129,0
9084,124,126,126,129,134,126,130,128,0
9087,127,128,131,125,118,127,130,127,0
9090,133,127,128,125,119,128,128,126,0
9093,130,129,128,126,125,128,124,127,0
9097,133,124,128,126,124,129,126,126,0
9101,133,128,130,128,126,128,128,127,0
9107,122,130,129,126,127,127,131,128,0
9110,133,127,129,128,126,128,123,126,0
9114,127,126,128,127,125,127,125,126,0
9117,120,128,128,128,126,128,124,128,0
9121,129,129,128,128,133,128,125,127,0
9124,130,127,128,127,131,127,125,130,0
9127,125,126,125,128,136,126,129,130,0
9130,129,124,125,128,133,128,132,128,0
9134,133,128,130,125,120,127,132,128,0
9137,129,129,128,128,124,128,126,127,0
9141,131,127,128,126,126,129,124,126,0
9144,128,125,129,129,128,128,128,126,0
9147,126,131,127,126,125,127,129,128,0
9149,118,128,127,128,128,128,128,127,0
9153,132,128,127,126,137,127,128,127,0
9155,129,126,128,126,123,127,128,127,0
9158,124,128,127,127,127,127,124,127,0
9161,126,128,127,127,127,127,125,127,0
9164,118,127,125,130,136,125,129,129,0
9167,125,125,124,129,135,126,131,127,0
9171,133,129,130,126,122,128,132,128,0
9175,131,130,128,126,124,128,127,126,0
9178,132,128,127,125,120,127,131,128,0
9181,120,123,128,126,135,128,128,128,0
9184,133,126,128,126,124,128,127,126,0
9189,127,129,127,127,125,128,125,126,0
9192,129,126,129,128,123,127,129,126,0
9196,133,127,128,128,127,129,124,128,0
9203,127,129,128,126,121,127,129,128,0
9206,126,129,127,128,122,127,131,127,0
9209,132,128,129,130,140,124,130,129,0
9212,126,127,125,129,136,125,126,126,0
9215,132,129,129,126,121,128,132,129,0
9219,130,129,127,128,125,128,128,127,0
9222,127,128,127,128,127,127,131,128,0
9227,127,126,127,128,131,128,124,127,0
9231,132,125,130,127,123,127,128,127,0
9233,126,129,127,127,128,127,131,127,0
9236,129,129,128,128,124,128,124,127,0
9240,133,127,128,129,140,128,126,127,0
9242,127,128,127,126,127,127,125,128,0
9245,125,128,128,127,128,128,129,128,0
9248,133,127,128,129,128,127,126,127,0
9252,124,126,127,129,131,128,124,130,0
9254,120,126,126,129,138,126,130,130,0
9257,125,129,126,128,133,126,130,129,0
9262,124,129,128,127,120,127,131,125,0
9265,130,128,129,128,120,127,126,125,0
9269,130,128,128,128,122,128,130,127,0
9273,132,130,127,127,121,128,127,126,0
9276,129,127,127,126,123,128,129,127,0
9280,129,128,129,127,122,127,126,127,0
9283,122,128,127,126,128,127,128,128,0
9286,133,127,128,128,125,127,129,129,0
9290,122,127,128,128,131,128,123,127,0
9294,129,126,126,130,137,124,127,130,0
9300,125,127,125,129,138,128,133,128,0
9305,131,129,128,125,121,128,128,128,0
9308,132,128,128,126,126,129,126,126,0
9311,128,127,127,128,132,127,127,128,0
9315,123,127,127,127,126,128,129,129,0
9318,131,129,128,126,127,128,129,127,0
9321,129,128,127,126,133,127,128,129,0
9324,125,124,128,127,126,127,129,128,0
9327,126,128,127,127,124,128,128,128,0
9332,128,130,129,127,124,127,127,127,0
9336,125,128,127,126,128,128,125,127,0
9339,132,126,127,128,130,128,132,128,0
9342,123,124,127,126,125,127,130,128,0
9348,129,129,127,128,121,128,126,126,0
9352,130,128,128,128,133,127,124,127,0
9355,126,125,126,129,136,123,129,131,0
9358,129,126,124,129,136,127,130,130,0
9370,126,128,129,125,123,128,129,126,0
9373,130,129,128,128,125,129,125,125,0
9376,124,127,128,127,122,129,125,126,0
9380,127,127,127,128,124,127,132,128,0
9389,133,129,129,126,124,128,129,127,0
9392,130,129,127,126,128,129,123,128,0
9396,129,128,128,128,125,128,125,126,0
9399,125,127,127,128,128,128,127,128,0
9403,128,125,127,128,126,128,130,128,0
9407,132,129,128,126,125,128,129,128,0
9411,128,128,128,128,127,128,124,128,0
9417,121,125,129,127,123,127,125,129,0
9423,135,128,128,128,129,127,128,128,0
9428,132,125,128,128,127,127,129,127,0
9431,129,127,128,129,125,127,124,126,0
9434,130,130,126,127,127,128,129,128,0
9438,126,129,128,128,130,127,127,128,0
9441,133,124,128,128,124,128,128,128,0
9444,120,127,126,129,137,125,130,130,0
9448,128,126,125,128,136,126,127,129,0
9451,123,128,129,128,122,129,126,126,0
9455,128,127,128,127,123,127,130,126,0
9458,134,127,127,126,126,128,132,127,0
9461,130,128,128,125,126,128,131,127,0
9463,131,129,129,128,122,127,128,127,0
9467,131,129,127,128,123,128,126,128,0
9470,127,126,128,128,137,128,126,126,0
9473,126,127,127,126,121,128,131,128,0
9476,125,127,127,126,128,127,129,128,0
9479,122,129,127,128,131,127,126,128,0
9482,130,128,128,127,124,127,122,127,0
9484,132,126,128,129,138,126,128,130,0
9487,125,126,126,129,134,127,131,131,0
9490,123,129,129,128,118,128,127,127,0
9492,123,129,127,128,120,128,130,126,0
9495,133,127,128,128,120,128,128,126,0
9498,132,127,130,128,124,128,124,128,0
9500,129,129,128,128,126,128,125,127,0
9505,124,127,127,128,140,126,128,130,0
9510,122,126,126,129,135,127,129,130,0
9513,127,127,129,125,121,128,127,127,0
9515,133,129,128,126,125,128,125,127,0
9524,130,127,128,125,123,128,126,127,0
9527,130,127,127,128,122,128,126,128,0
9530,121,127,128,128,124,127,131,127,0
9533,128,127,128,128,126,127,129,129,0
9536,128,126,127,127,125,128,127,128,0
9540,130,128,128,129,127,127,125,127,0
9543,120,128,128,128,135,127,128,128,0
9546,133,128,127,127,126,127,125,127,0
9549,123,127,128,128,135,127,126,128,0
9552,125,128,126,130,134,124,131,130,0
9556,129,125,124,129,134,126,126,130,0
9559,123,132,127,126,119,127,131,127,0
9570,131,129,129,127,119,127,131,127,0
9574,132,127,128,128,125,128,125,126,0
9577,128,125,129,128,122,128,124,127,0
9580,131,127,128,129,127,127,130,127,0
9584,133,129,127,126,126,128,125,126,0
9590,128,127,129,128,132,128,125,126,0
9593,122,124,127,130,140,126,128,131,0
9596,122,129,131,128,125,128,128,127,0
9600,128,127,129,127,122,129,126,128,0
9603,127,127,127,128,130,127,130,128,0
9608,126,127,128,128,122,128,128,126,0
9613,129,129,128,126,128,128,128,128,0
9617,128,129,129,129,130,128,125,127,0
9620,121,127,126,129,140,125,127,131,0
9624,125,126,125,129,137,128,131,128,0
9627,129,128,130,126,124,128,127,127,0
9630,125,128,129,127,127,127,130,128,0
9633,130,125,129,126,122,129,128,128,0
9636,128,128,127,126,122,128,126,128,0
9639,131,129,128,127,126,128,124,127,0
9642,128,130,126,128,123,129,125,127,0
9647,129,126,128,128,129,127,125,126,0
9652,126,126,127,126,124,129,123,126,0
9656,126,128,127,128,129,128,128,128,0
9659,126,130,128,129,134,128,129,128,0
9663,130,128,128,129,136,127,126,125,0
9666,126,127,124,129,131,125,127,129,0
9669,125,127,127,126,119,128,128,127,0
9672,129,129,128,128,123,128,128,126,0
9676,134,127,129,128,122,128,130,126,0
9679,132,125,129,128,121,128,129,127,0
9700,128,128,128,128,124,128,128,128,0
9703,127,129,128,129,129,128,127,127,0
9706,124,127,127,127,130,127,122,126,0
9711,127,125,127,127,124,128,125,127,0
9714,124,130,127,126,126,128,127,127,0
9718,122,128,127,127,128,128,128,128,0
9721,124,128,129,127,128,127,128,127,0
9726,121,127,128,129,134,128,128,127,0
9731,134,126,129,129,131,128,129,128,0
9736,126,128,128,129,134,128,129,127,0
9740,126,127,128,128,134,128,127,126,0
9743,130,126,125,129,136,124,131,130,0
9746,126,126,125,129,135,127,127,126,0
9749,127,129,127,128,126,127,129,127,0
9752,130,128,127,128,126,128,125,125,0
9756,133,124,127,128,127,128,129,127,0
9760,124,127,127,127,128,127,130,127,0
9764,127,129,129,128,129,128,123,128,0
9767,129,123,127,128,132,129,123,126,0
9770,127,127,127,126,125,128,125,127,0
9773,134,128,127,128,127,128,129,128,0
9776,121,130,128,127,123,127,125,128,0
9781,131,129,128,128,128,128,126,130,0
9784,125,127,126,129,135,127,126,130,0
9786,127,126,125,129,135,126,126,127,0
9790,130,129,129,127,122,128,129,127,0
9795,127,129,127,125,125,128,131,127,0
9799,129,127,128,127,120,127,131,127,0
9803,128,127,128,125,120,127,131,127,0
9806,133,129,130,125,123,128,128,127,0
9810,130,128,127,126,123,128,128,128,0
9813,132,127,130,128,128,128,126,127,0
9816,130,127,128,128,123,128,127,127,0
9820,128,129,129,128,131,127,126,127,0
9824,132,128,129,128,133,129,124,126,0
9829,120,125,127,130,136,124,126,130,0
9835,124,126,126,130,127,128,131,127,0
9839,131,129,128,126,128,129,131,129,0
9843,129,129,127,126,126,128,128,127,0
9846,132,127,126,128,123,127,127,127,0
9849,131,126,129,129,125,127,128,127,0
9853,130,129,127,127,123,128,125,126,0
9857,125,128,129,127,125,128,124,125,0
9860,126,129,126,129,138,127,123,127,0
9864,133,127,129,128,133,128,127,127,0
9868,130,126,128,128,127,128,126,127,0
9872,128,130,126,126,127,127,129,127,0
9875,126,127,126,126,130,127,123,130,0
9878,120,125,124,129,137,126,128,130,0
9881,120,127,129,128,121,127,133,128,0
9884,130,129,128,125,122,127,130,127,0
9888,120,128,127,128,124,128,127,126,0
9891,128,126,128,126,124,128,126,126,0
9894,127,127,129,126,125,128,125,128,0
9898,130,129,129,128,135,128,128,127,0
9902,132,126,128,128,127,128,124,128,0
9905,127,127,128,128,131,128,129,128,0
9907,132,128,128,129,128,127,127,129,0
9910,129,129,128,128,136,128,128,127,0
9913,129,128,128,128,134,127,124,130,0
9917,127,126,124,130,133,126,129,128,0
9921,124,127,127,128,119,128,127,126,0
9926,127,129,128,127,120,128,131,127,0
9930,133,128,128,127,126,129,128,127,0
9934,129,126,127,129,130,128,127,127,0
9937,128,126,127,128,125,127,132,128,0
9943,126,126,128,126,126,128,130,129,0
9940,128,129,128,128,128,127,127,126,0
9946,125,126,126,130,138,126,128,126,0
9950,134,130,128,126,119,127,130,127,0
9953,128,129,128,126,122,128,127,126,0
9956,125,125,130,128,127,127,128,126,0
9959,129,127,128,127,129,129,122,130,0
9962,119,127,126,128,127,128,128,127,0
9965,129,129,127,126,126,128,124,127,0
9968,128,127,127,128,128,127,128,127,0
9970,126,128,126,129,137,127,128,129,0
9973,124,128,127,128,123,128,129,126,0
9976,130,128,127,125,121,127,129,127,0
9979,129,128,128,128,125,128,122,127,0
9983,129,127,130,128,124,129,123,126,0
9987,133,125,128,127,123,127,124,128,0
9995,132,129,129,129,135,128,128,128,0
9999,121,128,128,128,125,128,127,128,0
10002,123,127,126,130,138,126,130,129,0
10005,125,126,126,129,131,126,127,128,0
10009,128,128,126,128,131,126,131,129,0
10014,130,128,126,125,116,128,131,125,0
10019,134,126,128,127,119,127,130,126,0
10023,134,125,129,126,120,127,130,127,0
10027,132,129,127,128,121,127,128,127,0
10030,127,128,127,126,123,127,130,127,0
10033,131,128,128,126,127,129,123,125,0
10036,126,125,127,126,126,128,124,128,0
10040,131,130,127,126,128,127,129,129,0
10044,126,130,128,127,127,128,122,127,0
10047,124,127,129,128,128,128,122,128,0
10050,121,124,126,129,136,125,131,130,0
10052,123,130,127,128,118,127,131,128,0
10055,131,129,128,126,125,129,128,127,0
10058,131,128,130,128,128,128,126,126,0
10062,123,126,127,128,137,127,125,127,0
10065,121,128,127,126,126,127,131,128,0
10069,128,129,128,128,130,127,128,128,0
10072,128,126,127,128,138,129,124,128,0
10074,124,128,127,128,122,128,128,127,0
10077,131,127,129,128,122,127,123,129,0
10081,121,125,127,128,123,128,127,127,0
10084,128,129,128,129,137,126,127,129,0
10087,126,126,123,129,136,126,130,129,0
10091,124,129,128,126,122,128,128,128,0
10094,130,128,129,125,119,128,129,127,0
10097,133,128,129,128,120,127,130,127,0
10099,135,127,128,126,122,127,128,127,0
10103,123,127,128,128,125,128,127,127,0
10107,132,129,127,129,130,128,123,126,0
10112,126,128,127,128,128,128,123,126,0
10115,124,125,126,129,140,125,126,126,0
10118,126,128,127,126,124,127,129,128,0
10121,132,129,130,127,129,129,123,129,0
10124,121,128,127,126,127,127,128,126,0
10127,131,123,127,126,121,127,124,126,0
10130,126,127,128,128,126,128,130,129,0
10133,127,129,128,127,137,128,128,127,0
10136,126,126,127,128,124,128,125,129,0
10140,124,128,124,130,135,125,128,130,0
10143,122,128,128,126,123,128,131,128,0
10146,129,130,128,127,122,128,128,127,0
10149,130,128,127,128,126,128,122,126,0
10152,132,127,129,126,129,128,127,126,0
10155,126,127,128,126,123,128,129,128,0
10158,129,130,127,128,127,129,128,128,0
10161,131,124,129,129,130,128,125,128,0
10165,123,127,127,127,131,130,125,127,0
10167,131,128,127,126,124,127,123,128,0
10170,130,129,128,128,125,127,132,127,0
10173,124,128,126,128,136,126,126,130,0
10176,125,126,125,129,134,127,130,130,0
10180,128,125,125,128,132,126,127,127,0
10183,131,131,129,127,122,128,131,126,0
10186,131,129,129,127,119,128,125,126,0
10192,126,127,127,127,122,128,130,126,0
10198,128,127,130,126,127,129,125,126,0
10202,128,129,128,128,124,127,125,128,0
10205,127,128,129,128,123,127,128,130,0
10208,122,128,126,128,128,128,125,125,0
10211,128,125,127,128,124,127,130,129,0
10214,126,129,127,126,125,127,129,129,0
10217,130,129,130,128,126,128,122,126,0
10220,128,126,127,126,127,128,123,127,0
10223,126,127,126,127,127,127,129,128,0
10226,124,127,127,129,128,128,126,126,0
10229,124,127,128,129,130,128,125,127,0
10232,127,131,126,126,129,129,124,129,0
10235,119,125,126,129,127,128,128,127,0
10238,128,129,127,127,124,128,129,128,0
10241,130,129,128,128,132,129,130,130,0
10247,122,126,123,130,134,125,128,129,0
10249,124,126,125,128,134,126,127,126,0
10252,129,128,127,128,124,129,131,126,0
10255,130,129,127,127,119,128,130,126,0
10259,135,126,128,128,123,128,129,125,0
10262,132,126,127,128,122,128,132,127,0
10265,131,128,128,128,128,128,124,126,0
10268,129,128,129,128,123,128,127,126,0
10271,129,127,127,128,138,128,126,127,0
10278,125,127,128,127,130,128,125,128,0
10281,127,129,128,126,126,128,126,127,0
10285,127,129,128,128,139,128,126,127,0
10291,128,125,128,128,133,129,124,127,0
10299,129,125,128,128,130,128,129,128,0
10304,127,128,128,128,132,128,129,128,0
10307,132,129,128,128,128,128,125,128,0
10310,128,127,127,128,124,128,127,129,0
10314,123,126,123,129,137,125,126,130,0
10318,123,127,126,128,123,127,130,127,0
10322,133,128,126,126,121,128,131,127,0
10325,133,128,127,126,126,127,131,127,0
10328,133,128,128,126,138,127,132,127,0
10331,127,127,128,128,125,127,129,127,0
10335,129,128,128,126,123,127,126,126,0
10340,130,126,130,129,126,127,128,127,0
10343,131,128,127,128,134,128,128,128,0
10347,125,130,128,128,132,128,126,127,0
10350,127,130,127,129,129,128,128,127,0
10353,122,127,128,129,126,127,123,129,0
10356,124,125,123,129,133,125,127,129,0
10359,122,127,126,129,124,129,126,126,0
10363,128,128,128,128,124,128,129,126,0
10366,129,128,127,128,123,127,132,126,0
10370,129,127,127,126,124,128,130,127,0
10374,129,127,128,126,124,128,126,129,0
10377,132,129,128,127,128,127,125,128,0
10382,126,128,127,128,128,128,127,128,0
10388,130,126,130,127,124,128,126,127,0
10392,123,125,128,127,131,128,129,128,0
10396,127,129,128,128,128,128,128,129,0
10400,124,128,128,129,126,127,127,127,0
10403,124,127,127,126,127,129,124,128,0
10405,121,125,128,126,122,127,132,128,0
10408,128,129,128,127,129,127,129,129,0
10411,129,128,128,127,128,127,124,128,0
10415,127,126,126,129,134,126,133,131,0
10418,127,125,125,128,133,126,125,128,0
10421,132,127,129,125,121,128,128,126,0
10424,125,127,127,128,122,128,131,126,0
10426,133,128,128,126,124,128,129,125,0
10430,129,126,127,128,123,127,131,127,0
10433,134,128,128,128,128,128,129,128,0
10437,128,130,127,128,124,128,130,127,0
10440,129,127,130,129,134,128,123,127,0
10444,126,127,127,129,124,128,127,127,0
10448,117,129,127,127,124,127,130,129,0
10451,128,129,128,129,128,128,126,128,0
10456,128,127,127,129,138,126,126,129,0
10458,118,126,126,129,137,126,125,129,0
10463,128,129,127,126,125,127,128,127,0
10467,130,128,128,128,123,128,126,127,0
10470,131,125,128,126,125,128,127,127,0
10473,124,125,128,128,124,127,131,129,0
10477,128,131,127,126,124,128,128,129,0
10481,132,129,128,128,129,126,128,131,0
10487,128,127,125,130,137,126,126,129,0
10491,124,126,126,128,122,129,131,128,0
10494,127,129,129,127,125,128,127,128,0
10498,129,130,128,129,129,128,127,127,0
10501,133,127,129,128,124,128,126,126,0
10504,126,125,127,129,129,128,127,128,0
10507,130,126,127,127,126,128,129,128,0
10510,132,129,128,127,135,128,127,129,0
10513,121,125,128,128,130,128,125,127,0
10516,132,125,128,128,132,127,128,127,0
10519,126,131,127,126,126,128,130,129,0
10522,129,130,128,128,129,128,127,128,0
10525,128,126,128,126,123,127,128,127,0
10530,122,127,127,129,133,127,128,126,0
10533,129,128,130,128,122,128,125,126,0
10537,125,129,130,129,126,128,125,126,0
10540,130,127,128,128,126,127,126,130,0
10543,131,126,124,130,136,124,129,129,0
10545,123,126,125,128,120,128,131,127,0
10549,132,130,129,128,123,127,131,126,0
10553,123,128,127,126,130,128,131,128,0
10557,127,127,127,126,127,128,127,128,0
10560,131,126,128,128,128,128,128,127,0
10564,120,129,128,126,123,128,123,125,0
10568,125,127,129,126,124,128,124,126,0
10573,129,125,127,128,128,128,127,127,0
10577,127,128,129,126,126,128,124,127,0
10581,126,129,129,129,127,127,130,128,0
10584,120,129,127,127,134,130,129,129,0
10586,123,126,126,129,137,127,129,129,0
10590,127,127,125,128,120,128,129,127,0
10596,135,129,129,126,126,128,128,126,0
10600,127,126,129,128,122,127,130,127,0
10604,124,128,127,127,122,127,127,126,0
10607,124,129,127,125,124,128,128,129,0
10611,130,130,128,127,127,128,125,127,0
10615,129,127,130,129,139,128,127,127,0
10619,124,123,127,128,136,130,124,130,0
10622,123,126,124,129,136,125,127,130,0
10625,125,130,129,128,124,127,128,128,0
10628,126,128,128,128,122,127,129,128,0
10631,128,127,127,125,130,128,128,128,0
10635,131,127,128,128,123,128,126,129,0
10638,126,129,128,129,125,127,130,129,0
10641,129,128,128,128,129,127,130,127,0
10644,131,127,128,128,131,127,128,126,0
10647,127,125,127,126,125,127,128,127,0
10651,129,129,128,128,124,128,129,128,0
10655,129,128,127,127,127,127,127,127,0
10659,123,127,127,129,136,129,129,129,0
10666,119,126,127,129,134,126,130,130,0
10669,131,127,126,129,131,126,125,126,0
10674,131,128,127,127,118,128,128,125,0
10678,128,127,127,128,120,128,131,126,0
10681,127,126,128,128,123,129,128,128,0
10684,126,132,127,127,126,128,127,128,0
10687,132,128,128,128,137,128,127,127,0
10691,128,126,127,126,124,127,130,128,0
10694,120,126,127,126,126,127,129,127,0
10700,125,128,128,127,127,127,129,129,0
10703,127,129,128,128,130,128,128,127,0
10706,129,127,128,127,123,127,128,126,0
10710,131,128,126,130,140,124,128,131,0
10714,122,127,126,130,138,126,127,127,0
10717,132,129,127,127,121,127,131,127,0
10720,130,128,128,126,125,128,126,126,0
10723,130,126,127,127,126,128,127,128,0
10726,120,128,127,126,127,128,129,128,0
10730,132,129,128,129,125,128,125,127,0
10734,130,128,129,128,136,128,126,125,0
10739,128,127,128,128,126,128,126,126,0
10741,123,127,129,129,125,128,128,127,0
10744,125,129,126,129,127,127,124,126,0
10747,124,125,127,129,136,129,125,128,0
10750,125,125,128,126,125,128,126,127,0
10755,129,128,129,126,127,128,124,127,0
10760,129,129,127,128,127,128,124,127,0
10764,128,126,127,130,136,126,129,130,0
10767,129,126,124,129,135,126,127,129,0
10771,122,128,128,125,121,128,130,127,0
10774,132,129,128,127,125,128,128,125,0
10777,131,129,127,128,123,127,126,125,0
10782,133,128,127,128,122,127,131,128,0
10784,131,129,127,126,127,128,123,129,0
10788,133,124,130,128,133,127,128,128,0
10791,132,126,129,126,129,128,124,127,0
10794,134,130,126,126,126,129,126,128,0
10797,126,127,128,128,124,127,128,127,0
10801,131,128,130,127,127,127,126,127,0
10804,126,130,127,127,128,128,127,127,0
10807,129,127,128,128,128,128,124,126,0
10812,123,127,127,126,127,128,126,128,0
10816,125,128,128,126,130,128,127,128,0
10821,128,125,129,129,139,125,131,130,0
10824,124,126,125,129,136,125,126,129,0
10828,126,125,127,127,123,128,132,128,0
10831,130,129,130,128,117,127,132,128,0
10837,132,126,129,126,123,128,124,125,0
10840,128,125,129,128,123,127,131,128,0
10844,132,128,128,127,125,128,125,128,0
10848,131,130,128,127,123,128,127,126,0
10855,124,128,129,128,125,128,128,125,0
10861,127,128,128,126,125,129,125,125,0
10864,127,124,127,130,136,126,126,129,0
10867,129,125,127,129,135,129,132,127,0
10870,133,129,127,128,121,128,127,126,0
10873,129,127,129,128,123,127,131,126,0
10877,126,127,128,128,131,128,128,128,0
10880,129,129,128,126,122,127,132,129,0
10883,127,128,129,128,129,127,127,127,0
10887,126,128,127,126,127,127,129,126,0
10890,124,126,126,130,138,126,130,129,0
10892,125,128,128,128,122,128,131,127,0
10901,130,128,129,126,128,128,125,127,0
10905,126,127,127,126,123,127,128,128,0
10908,124,130,126,126,126,128,129,127,0
10913,128,129,127,127,127,127,131,127,0
10917,123,128,127,129,138,126,129,129,0
10920,125,126,125,128,136,127,128,129,0
10923,128,126,126,129,132,128,131,126,0
10927,130,128,128,128,121,128,126,126,0
10930,124,129,129,128,126,128,124,126,0
10933,128,128,127,127,123,127,130,127,0
10937,133,126,127,126,125,128,125,127,0
10940,130,126,130,128,129,128,125,129,0
10942,128,128,129,128,128,128,127,128,0
10947,126,130,127,128,126,128,127,128,0
10953,119,124,127,128,131,128,127,128,0
10956,124,128,127,127,128,127,129,128,0
10960,125,129,127,127,132,128,129,128,0
10963,128,124,126,128,130,128,123,126,0
10967,130,125,126,130,140,126,130,130,0
10971,122,128,126,129,137,126,131,131,0
10974,122,129,125,129,130,127,132,127,0
10977,130,128,128,127,122,127,126,126,0
10981,131,127,127,125,120,127,131,127,0
10984,132,126,129,127,122,128,127,126,0
10988,130,129,127,126,124,127,129,127,0
10992,127,128,128,127,126,128,127,127,0
10995,122,128,126,128,136,129,126,126,0
10998,125,127,127,126,123,127,131,128,0
11001,129,127,128,126,122,127,129,128,0
11005,126,127,128,128,129,128,122,126,0
11008,123,126,125,130,138,126,128,129,0
11011,125,127,126,128,119,127,132,127,0
11014,128,128,128,126,122,128,130,127,0
11017,132,129,128,127,123,128,125,127,0
11020,128,125,127,129,124,128,131,128,0
11023,132,124,128,128,125,128,127,127,0
11029,126,130,129,128,126,127,131,128,0
11032,119,128,127,128,126,128,125,126,0
11035,122,127,127,128,127,128,127,128,0
11039,128,128,128,129,129,128,127,128,0
11046,124,128,128,126,124,128,131,127,0
11049,127,128,129,129,128,128,127,127,0
11052,131,127,128,128,137,126,126,130,0
11056,129,128,125,129,136,126,129,131,0
11059,128,127,126,128,122,128,128,126,0
11063,133,125,127,127,123,128,127,126,0
11066,125,126,127,128,126,130,128,127,0
11069,127,128,127,126,122,127,131,127,0
11073,132,128,128,128,126,128,125,128,0
11077,129,130,126,126,129,127,128,130,0
11080,125,128,127,126,135,128,125,129,0
11083,120,127,128,126,124,127,130,128,0
11086,128,129,128,127,128,127,125,127,0
11089,129,128,128,126,124,128,125,127,0
11099,132,124,129,129,138,127,129,129,0
11104,123,126,127,128,135,126,133,130,0
11107,128,129,130,128,120,128,128,127,0
11110,135,126,129,127,123,128,127,126,0
11113,126,128,128,128,123,128,126,125,0
11116,129,124,127,128,126,128,127,126,0
11119,127,127,128,128,126,127,131,129,0
11122,126,130,128,128,122,128,127,127,0
11125,128,128,127,128,127,128,131,129,0
11130,124,126,126,130,138,127,126,130,0
11135,121,129,129,125,121,128,129,126,0
11140,133,128,128,126,124,127,131,127,0
11143,128,127,128,128,126,127,124,128,0
11147,120,125,128,128,122,128,126,125,0
11149,130,129,128,127,133,127,132,128,0
11153,131,129,129,128,125,128,125,128,0
11155,128,128,127,127,126,128,127,128,0
11158,120,127,127,128,137,128,123,128,0
11161,132,126,127,128,135,127,128,127,0
11164,131,128,127,128,136,128,125,128,0
11168,124,125,128,128,127,128,128,129,0
11171,120,129,127,126,122,127,128,128,0
11175,133,129,128,126,123,127,125,129,0
11178,128,129,128,127,130,128,124,126,0
11184,128,128,128,129,135,127,130,130,0
11188,124,126,126,129,131,123,128,129,0
11192,127,127,127,127,119,128,131,127,0
11195,131,127,128,127,120,128,128,126,0
11205,129,128,127,127,122,128,124,126,0
11209,132,125,127,128,124,128,128,126,0
11213,132,128,128,128,121,128,128,127,0
11217,132,129,129,128,124,128,127,127,0
11220,129,128,128,127,133,128,126,129,0
11223,127,127,128,126,128,128,130,128,0
11227,126,127,128,128,127,128,125,128,0
11232,126,128,128,127,131,127,126,128,0
11240,130,130,127,129,139,126,126,130,0
11243,126,126,125,129,135,126,128,129,0
11246,123,130,128,127,124,127,130,128,0
11250,133,129,128,128,122,128,129,127,0
11253,128,128,127,126,127,127,130,127,0
11256,129,127,127,126,124,128,123,125,0
11260,127,126,131,128,129,128,123,129,0
11264,127,129,128,128,124,128,124,127,0
11267,130,128,128,127,126,128,126,127,0
11270,128,128,128,126,127,128,129,127,0
11272,128,128,129,128,126,128,132,128,0
11275,129,129,128,127,128,127,129,128,0
11281,133,128,128,129,137,126,127,131,0
11285,129,127,124,129,133,126,129,129,0
11288,125,126,126,128,124,130,131,128,0
11291,127,128,128,128,127,128,127,126,0
11294,128,128,127,128,122,128,132,128,0
11296,125,127,126,126,123,128,130,127,0
11299,128,127,128,126,124,128,129,128,0
11303,132,130,129,126,124,127,127,126,0
11305,125,128,129,128,123,127,129,128,0
11308,121,125,128,126,130,129,124,128,0
11312,131,127,130,129,128,128,126,127,0
11317,123,129,128,127,127,127,128,126,0
11321,130,128,128,128,124,128,126,126,0
11323,126,125,129,127,134,129,127,127,0
11328,121,129,127,128,130,128,126,127,0
11332,128,129,129,129,139,126,127,130,0
11335,127,128,125,129,137,126,129,129,0
11338,121,127,129,128,134,129,132,126,0
11340,127,127,127,127,121,128,128,127,0
11353,130,130,129,125,122,128,131,127,0
11359,130,130,127,128,129,127,131,127,0
11362,133,124,128,126,125,128,122,126,0
11366,121,128,128,128,126,127,128,128,0
11369,125,128,128,126,127,127,131,128,0
11372,127,129,128,128,132,128,126,126,0
11376,127,127,128,126,123,128,128,128,0
11379,126,126,127,130,138,127,124,128,0
11390,133,129,130,129,128,127,126,128,0
11393,125,127,127,127,127,128,128,129,0
11398,122,126,126,129,136,126,125,128,0
11402,127,125,125,129,132,126,123,127,0
11405,134,127,128,125,122,128,127,127,0
11410,129,130,127,125,123,128,131,128,0
11413,130,128,127,126,123,129,127,126,0
11416,130,127,128,127,127,128,125,126,0
11428,123,128,129,128,124,128,127,128,0
11433,126,131,128,128,128,128,127,128,0
11437,125,127,127,128,128,128,128,127,0
11440,121,125,127,128,126,127,122,126,0
11444,123,128,129,129,127,128,123,128,0
11447,129,129,129,128,130,127,128,129,0
11450,126,127,126,129,135,127,127,129,0
11453,127,128,126,129,136,127,128,130,0
11457,128,127,127,128,132,126,127,126,0
11460,131,125,128,127,119,127,130,126,0
11463,133,130,127,127,122,127,131,127,0
11472,133,126,128,126,124,128,126,127,0
11475,125,130,128,128,125,128,130,129,0
11478,125,130,130,128,133,127,130,128,0
11482,118,127,128,127,122,127,130,128,0
11485,123,127,126,128,122,128,127,127,0
11489,125,127,127,128,124,128,129,128,0
11492,122,129,127,126,121,127,128,129,0
11495,128,127,128,128,133,128,127,127,0
11500,131,127,128,128,130,128,121,126,0
11509,127,126,127,127,128,128,124,127,0
11512,122,129,127,126,125,127,128,127,0
11516,128,128,128,129,138,126,128,129,0
11521,129,125,124,129,138,126,127,130,0
11524,121,127,129,128,120,127,129,128,0
11528,129,129,129,127,125,128,127,127,0
11533,130,127,128,128,125,128,125,125,0
11538,133,125,128,127,123,127,131,127,0
11544,126,126,127,126,123,128,131,129,0
11548,131,130,128,127,125,127,127,128,0
11551,131,128,128,127,128,128,131,128,0
11555,130,128,128,126,123,128,128,129,0
11558,124,126,127,128,125,127,127,127,0
11561,130,128,128,126,128,126,131,128,0
11565,129,125,128,128,124,128,127,127,0
11568,123,128,126,127,126,128,126,128,0
11571,117,126,126,129,138,127,130,130,0
11575,126,127,126,129,135,126,125,126,0
11578,133,128,129,128,119,127,128,125,0
11581,129,127,127,128,121,127,128,126,0
11628,128,126,129,125,123,128,127,128,0
11633,124,130,128,128,123,127,129,127,0
11644,129,129,129,126,133,128,126,127,0
11649,129,127,128,130,134,127,127,130,0
11653,127,126,124,129,134,126,128,128,0
11696,122,128,130,126,120,128,130,127,0
11707,129,128,129,128,134,128,131,126,0
11717,130,124,129,128,121,128,132,127,0
11723,129,129,127,127,127,128,125,129,0
11733,124,129,127,126,123,127,131,128,0
11766,128,129,128,128,125,129,126,127,0
11777,123,127,126,128,129,128,126,129,0
11785,125,126,126,129,137,128,127,126,0
11831,127,127,130,126,128,127,126,128,0
11844,129,128,127,126,124,127,128,126,0
11868,123,128,128,127,133,128,126,127,0
11880,131,127,127,128,126,128,129,127,0
11890,128,128,128,127,129,128,129,128,0
11901,127,129,127,128,138,127,126,127,0
11908,125,128,127,128,141,126,132,130,0
11914,130,125,124,129,136,126,127,131,0
11919,123,128,128,127,120,127,132,128,0
11922,129,129,128,126,121,128,131,126,0
11925,134,128,130,128,126,129,123,127,0
11929,132,125,126,126,122,128,130,127,0
11932,128,129,129,128,126,128,128,127,0
11935,130,130,128,127,124,128,128,126,0
11938,124,127,128,129,126,128,123,126,0
11941,124,127,127,128,128,127,128,127,0
11944,127,126,127,129,132,128,125,127,0
11948,130,126,129,129,127,128,127,127,0
11951,131,133,128,127,126,128,129,128,0
11956,126,128,127,127,132,128,131,128,0
11963,123,128,127,129,127,128,130,128,0
11966,129,129,127,127,130,128,127,128,0
11970,129,128,127,127,125,127,126,130,0
11972,129,126,123,130,136,126,127,130,0
11975,123,126,126,128,131,128,131,125,0
11978,127,128,128,125,122,128,126,127,0
11981,133,128,129,128,120,128,124,125,0
11984,131,127,126,128,131,128,124,126,0
11986,128,126,127,128,122,127,129,128,0
11990,126,128,126,128,128,128,128,127,0
11993,127,129,129,128,127,128,123,126,0
11996,125,127,127,128,127,127,123,127,0
12001,125,127,129,128,127,128,125,128,0
12005,128,129,129,129,126,127,129,128,0
12008,131,128,128,128,126,127,127,128,0
12011,127,127,126,129,138,125,127,130,0
12014,127,126,126,129,135,126,126,126,0
12033,128,132,128,128,126,127,127,127,0
12037,129,124,127,128,122,127,127,127,0
12040,129,126,128,127,125,127,130,127,0
12044,128,126,129,126,136,128,127,127,0
12048,127,129,128,128,124,128,131,128,0
12053,129,125,130,128,133,128,125,126,0
12102,122,127,129,128,123,128,123,127,0
12113,129,130,126,126,124,127,129,129,0
12119,126,129,129,129,138,129,124,128,0
12170,120,129,129,128,126,127,125,126,0
12179,127,127,127,128,128,127,122,125,0
12202,128,126,127,128,132,127,125,128,0
12211,130,127,127,129,138,127,130,127,0
12217,130,127,127,128,138,127,126,130,0
12220,124,128,124,129,135,125,128,129,0
12224,124,126,125,129,133,126,125,127,0
12228,134,129,128,125,121,128,129,128,0
12231,132,129,127,127,124,129,128,126,0
12234,130,128,127,125,122,128,127,126,0
12237,128,125,126,128,127,128,122,126,0
12241,130,128,128,126,124,128,128,126,0
12244,128,128,127,128,128,127,127,127,0
12247,129,127,128,128,125,127,127,127,0
12250,131,127,128,127,125,128,126,127,0
12253,132,126,129,128,128,128,129,132,0
12257,126,127,126,130,135,128,130,129,0
12260,125,129,127,128,130,128,128,128,0
12264,124,127,127,128,124,127,127,127,0
12267,118,128,127,128,126,127,129,128,0
12270,125,129,127,128,126,127,131,129,0
12276,120,127,126,130,135,125,129,129,0
12280,122,126,126,129,134,126,130,129,0
12284,130,128,125,129,126,128,127,126,0
12290,129,125,127,127,119,128,128,127,0
12295,135,126,127,128,123,128,125,127,0
12299,132,126,127,128,122,127,129,127,0
12302,125,128,128,126,132,128,126,127,0
12305,125,129,128,128,127,128,126,129,0
12309,124,128,127,128,126,128,127,127,0
12312,129,125,128,128,130,128,127,129,0
12315,121,127,127,129,131,128,124,127,0
12318,129,130,130,126,124,128,129,127,0
12321,133,128,129,126,125,127,131,127,0
12324,125,127,127,126,125,127,121,126,0
12327,129,127,128,128,125,128,125,129,0
12330,126,129,127,128,127,128,125,128,0
12333,127,128,129,127,127,128,124,127,0
12337,124,126,124,130,135,126,130,130,0
12341,125,126,125,129,132,129,132,128,0
12344,129,129,127,126,120,128,127,126,0
12347,130,127,129,128,125,129,130,126,0
12349,133,128,127,128,125,128,127,126,0
12353,125,127,128,126,128,129,124,127,0
12355,128,129,129,128,127,128,126,127,0
12361,125,129,127,128,124,128,123,127,0
12364,126,127,127,128,123,128,128,128,0
12370,120,127,128,128,127,127,127,128,0
12375,131,126,128,129,127,127,128,128,0
12378,122,131,127,126,130,128,130,130,0
12381,126,124,126,128,136,127,126,130,0
12391,130,129,127,126,123,127,128,126,0
12384,123,126,126,128,136,128,129,127,0
12405,129,129,127,127,122,129,123,127,0
12410,135,125,129,126,133,128,127,126,0
12416,120,126,126,128,135,128,129,127,0
12421,128,129,127,127,125,127,123,126,0
12425,130,126,129,125,123,128,127,127,0
12428,127,127,127,128,126,127,130,127,0
12433,126,125,127,125,127,127,132,127,0
12437,128,128,129,128,131,128,129,128,0
12440,131,128,129,128,127,128,127,127,0
12446,126,127,128,128,126,128,125,127,0
12449,126,125,126,130,135,126,129,130,0
12508,122,128,126,129,133,125,131,130,0
12516,128,128,127,126,121,128,127,127,0
12520,135,127,128,127,124,129,127,127,0
12531,130,126,129,128,127,130,125,127,0
12535,129,128,129,127,126,128,128,127,0
12539,129,131,129,126,126,128,126,127,0
12542,122,128,127,126,123,128,130,127,0
12545,133,123,128,128,124,128,123,126,0
12549,126,126,129,126,125,127,129,129,0
12552,126,129,128,128,127,128,124,127,0
12555,129,127,128,129,127,129,124,128,0
12559,129,126,129,128,134,126,127,131,0
12562,126,130,125,129,135,126,129,127,0
12566,128,126,127,128,123,127,132,127,0
12569,131,128,127,127,123,127,130,127,0
12572,126,128,127,126,127,128,127,128,0
12576,132,128,130,127,126,127,132,128,0
12579,132,129,129,126,121,128,128,126,0
12583,124,127,127,128,128,127,127,130,0
12587,122,126,126,129,137,126,129,130,0
12593,126,128,125,129,136,128,128,127,0
12596,132,127,127,127,121,128,126,129,0
12599,124,128,127,127,123,128,129,127,0
12603,129,128,127,127,126,128,129,127,0
12606,132,128,128,126,124,127,127,127,0
12609,121,126,130,128,126,128,127,127,0
12613,125,128,127,126,127,127,122,127,0
12616,129,127,128,127,123,128,125,127,0
12621,128,127,130,126,129,127,124,127,0
12624,130,128,129,128,126,128,125,129,0
12628,117,126,128,128,127,128,127,129,0
12631,126,128,126,129,136,127,125,129,0
12634,126,126,126,128,120,128,130,126,0
12637,132,129,127,126,120,127,132,127,0
12640,130,127,127,127,122,128,124,125,0
12642,128,124,126,128,122,127,131,127,0
12645,123,127,127,126,125,127,127,128,0
12648,124,129,128,127,124,129,126,128,0
