Start Recording
69,128,128,128,125,128,128,126,127,0
77,126,127,128,122,128,128,127,130,0
83,128,129,128,128,128,128,127,132,0
88,129,129,126,123,127,128,127,133,0
92,127,127,126,127,128,128,127,133,0
121,127,127,130,140,126,125,129,126,0
126,126,128,128,125,127,126,128,132,0
130,129,127,126,126,127,130,128,127,0
189,128,127,126,129,127,130,128,126,0
195,127,126,130,139,127,124,126,127,0
201,126,130,126,126,128,131,127,130,0
206,128,129,128,126,127,127,128,127,0
210,128,128,128,128,128,123,125,126,0
257,126,128,127,139,128,126,128,131,0
263,127,128,129,130,128,124,127,133,0
268,129,130,128,127,128,123,128,126,0
324,127,127,129,135,128,125,125,128,0
329,127,127,126,121,128,126,126,130,0
333,127,129,127,123,128,130,128,119,0
337,129,125,129,135,124,129,132,126,0
340,128,123,129,137,126,126,130,123,0
344,127,127,127,121,127,130,127,128,0
348,128,130,126,126,128,127,127,129,0
351,130,128,126,125,128,131,127,124,0
355,128,127,127,126,130,127,126,123,0
359,127,127,126,127,128,128,127,129,0
364,127,128,126,123,128,128,127,130,0
368,130,130,126,125,128,127,128,127,0
371,129,128,128,124,128,124,126,127,0
375,124,128,128,127,128,127,126,128,0
379,125,129,129,123,128,127,128,123,0
383,131,127,126,129,128,131,128,124,0
392,128,128,128,128,128,129,128,120,0
395,127,127,129,138,125,130,130,125,0
399,126,124,128,137,127,125,131,123,0
403,129,128,125,125,128,129,127,133,0
407,129,128,126,122,128,129,126,130,0
410,125,127,128,122,128,130,127,123,0
414,126,128,127,129,128,128,127,133,0
417,127,129,127,128,128,128,126,128,0
420,128,127,126,124,128,126,126,125,0
424,127,127,128,126,129,123,127,127,0
428,127,129,126,127,128,128,127,131,0
434,128,129,128,127,127,130,128,124,0
438,128,128,127,133,127,131,129,123,0
441,126,125,130,138,127,126,129,122,0
444,127,124,129,137,126,127,128,129,0
459,130,128,127,124,128,128,128,129,0
463,129,129,127,122,128,128,127,132,0
467,126,131,127,122,129,129,126,134,0
470,127,128,127,122,128,130,126,130,0
474,129,130,126,124,127,129,129,127,0
478,128,127,126,126,127,130,129,125,0
481,128,127,127,128,128,127,125,128,0
485,124,128,127,127,128,126,127,135,0
488,127,128,128,123,127,130,129,129,0
492,130,127,126,126,127,131,131,120,0
495,126,124,128,137,124,126,130,121,0
498,126,124,130,137,126,125,127,130,0
501,127,129,126,122,127,131,126,130,0
504,129,127,128,125,127,131,127,131,0
507,128,126,128,121,127,130,127,127,0
510,127,128,128,127,129,126,126,122,0
526,129,130,128,128,128,131,129,123,0
532,129,127,128,127,127,127,127,124,0
537,128,126,126,123,127,131,127,130,0
540,126,128,127,124,128,126,126,130,0
544,127,128,127,129,127,128,127,122,0
548,131,127,127,130,128,123,126,127,0
595,129,128,129,138,126,126,129,123,0
602,127,124,128,136,126,128,130,123,0
609,127,128,127,122,128,127,127,132,0
618,129,129,126,124,128,130,126,129,0
622,128,129,126,124,128,130,127,121,0
626,127,127,127,129,128,124,125,122,0
629,127,130,128,128,128,128,127,122,0
633,129,128,126,125,128,129,129,127,0
636,127,127,128,125,128,128,129,122,0
643,126,127,128,125,128,124,128,129,0
647,126,129,128,124,127,131,129,122,0
650,129,128,128,126,127,129,128,127,0
654,127,127,128,127,129,123,127,128,0
657,128,128,127,123,128,127,126,124,0
661,127,129,130,138,124,126,131,121,0
665,128,127,126,121,128,131,127,134,0
669,128,127,126,124,127,130,128,128,0
672,127,127,126,124,129,127,126,128,0
676,128,127,128,123,127,127,128,127,0
680,129,128,127,129,127,127,127,126,0
683,128,127,128,126,127,132,130,121,0
686,126,123,129,138,125,128,130,123,0
689,125,126,129,125,128,128,127,135,0
692,130,128,127,123,128,127,127,131,0
695,129,126,127,131,128,126,126,124,0
699,127,127,127,122,127,128,128,122,0
702,125,127,126,122,127,129,127,131,0
705,129,129,127,128,127,127,127,128,0
709,131,127,127,129,128,124,128,128,0
711,127,129,128,124,128,126,127,127,0
714,127,130,129,133,127,130,128,131,0
717,129,130,128,123,127,124,128,134,0
721,128,129,128,126,127,128,128,125,0
725,127,127,127,127,128,127,127,121,0
731,126,128,128,129,127,129,127,132,0
734,130,129,128,133,127,129,128,120,0
737,129,129,129,126,127,124,128,123,0
740,127,126,129,140,125,132,131,128,0
743,125,123,128,136,125,127,129,123,0
746,129,130,127,122,128,133,127,131,0
749,128,128,127,125,128,130,126,128,0
752,127,127,127,127,128,130,127,126,0
756,124,127,127,124,128,125,126,125,0
759,127,129,127,127,128,127,127,128,0
763,129,128,127,122,128,126,128,130,0
765,128,128,128,124,128,124,127,129,0
769,126,128,127,128,127,129,130,124,0
772,127,131,128,131,128,127,127,133,0
775,130,128,126,123,128,131,128,122,0
778,129,126,127,123,128,131,128,120,0
796,127,128,128,126,128,124,127,123,0
800,128,127,126,124,127,130,128,128,0
804,129,128,128,132,128,131,128,123,0
809,127,127,128,128,127,130,127,125,0
812,124,126,129,139,124,131,131,125,0
817,128,126,128,137,126,126,129,131,0
820,129,131,125,120,128,128,125,124,0
823,126,128,128,121,128,128,127,133,0
827,128,128,127,122,128,125,126,127,0
830,126,128,129,125,127,126,127,129,0
833,129,127,128,128,127,131,128,131,0
864,128,128,129,127,128,124,127,128,0
870,128,128,128,123,129,125,129,133,0
874,129,129,128,122,128,128,127,124,0
878,130,129,126,121,127,125,126,129,0
881,128,128,127,123,129,125,127,131,0
885,126,127,126,125,127,130,127,120,0
888,127,128,127,126,127,130,128,119,0
892,128,129,128,127,128,124,126,127,0
895,127,129,128,130,127,129,130,122,0
899,128,123,129,138,125,127,131,123,0
902,127,124,129,135,128,130,128,130,0
905,130,128,127,127,128,129,128,132,0
909,128,128,126,123,128,128,127,126,0
912,128,127,125,126,127,127,127,131,0
915,128,127,128,123,129,129,127,129,0
920,129,127,128,127,128,132,127,130,0
923,129,127,128,125,127,131,127,126,0
926,126,128,128,125,129,123,127,129,0
929,126,129,128,130,128,128,128,132,0
932,130,128,129,132,127,128,126,131,0
936,129,130,129,124,128,128,127,123,0
942,127,127,128,129,128,127,128,120,0
946,126,126,129,140,127,128,130,125,0
950,128,128,127,122,128,127,127,129,0
953,129,127,128,131,128,124,128,130,0
956,127,129,128,125,128,126,126,130,0
959,127,127,128,138,126,128,130,125,0
962,129,125,128,121,127,131,127,129,0
965,129,127,128,122,128,132,127,129,0
968,127,127,127,121,128,130,127,120,0
971,126,128,128,122,128,126,126,129,0
973,129,129,128,133,128,132,128,128,0
977,130,127,128,123,127,131,127,127,0
981,126,127,127,125,127,124,126,133,0
986,125,128,128,123,128,124,130,121,0
989,130,124,128,135,125,129,130,126,0
992,128,125,129,134,126,131,130,122,0
995,128,127,128,124,128,130,125,127,0
998,121,127,128,126,129,127,126,131,0
1001,129,129,127,122,129,131,128,128,0
1004,129,128,127,124,128,127,127,132,0
1007,125,130,129,126,128,124,127,133,0
1012,123,127,128,122,127,128,127,132,0
1015,130,128,127,129,128,126,127,127,0
1021,127,129,127,128,128,128,128,124,0
1025,126,127,128,125,128,127,128,125,0
1029,127,129,128,123,128,126,127,126,0
1032,128,128,127,125,127,130,128,128,0
1038,128,127,126,129,128,130,127,127,0
1041,126,128,129,128,128,127,127,127,0
1046,125,128,129,141,124,130,131,123,0
1052,130,125,129,137,126,126,127,130,0
1056,130,127,128,123,127,128,127,133,0
1060,128,128,127,134,127,128,127,129,0
1064,124,128,126,128,128,127,128,120,0
1067,127,129,128,123,128,128,127,132,0
1071,130,129,128,123,127,130,127,130,0
1074,127,129,128,133,127,127,127,132,0
1077,128,129,128,126,129,125,127,126,0
1080,127,127,126,126,127,128,127,128,0
1084,128,127,128,130,127,128,127,129,0
1088,127,128,128,126,127,125,125,124,0
1091,128,127,128,127,129,125,129,118,0
1097,126,128,128,125,127,130,129,131,0
1101,130,128,128,127,127,128,127,129,0
1104,128,127,126,126,127,129,130,124,0
1107,125,124,129,138,124,129,129,127,0
1110,127,125,129,134,128,127,127,129,0
1112,133,128,125,125,128,127,127,129,0
1116,129,130,127,128,128,124,127,129,0
1120,127,129,126,127,128,125,128,122,0
1124,128,129,126,122,128,125,126,124,0
1128,129,130,128,122,128,127,126,132,0
1131,127,130,128,127,128,127,130,125,0
1134,126,126,128,136,126,128,129,119,0
1137,126,131,127,124,129,124,127,133,0
1141,130,128,128,124,127,130,127,125,0
1144,128,127,126,123,128,126,126,125,0
1147,127,127,126,124,129,128,127,130,0
1150,127,128,126,124,128,127,126,130,0
1153,129,127,126,127,127,130,128,134,0
1156,128,128,128,130,127,127,127,129,0
1159,126,127,127,131,128,123,126,129,0
1162,124,128,129,134,127,131,128,130,0
1166,129,128,126,125,128,129,127,120,0
1169,126,127,129,126,128,127,127,127,0
1173,127,127,128,135,129,125,127,128,0
1176,127,129,128,131,127,130,128,129,0
1180,129,128,128,129,127,129,128,122,0
1183,128,127,129,137,127,129,130,124,0
1185,127,125,129,136,124,128,130,123,0
1189,127,124,129,134,128,130,125,133,0
1192,129,130,127,123,127,131,127,132,0
1196,126,130,126,121,128,127,126,122,0
1202,128,126,127,120,127,127,127,132,0
1205,127,127,128,126,129,123,128,134,0
1208,130,130,126,125,128,127,127,128,0
1211,128,127,128,130,127,125,126,130,0
1214,127,126,128,125,127,127,127,128,0
1217,126,128,129,135,127,127,128,128,0
1220,128,129,128,123,128,127,127,127,0
1223,126,128,128,129,128,124,126,125,0
1226,128,128,128,129,128,127,127,128,0
1229,126,128,128,131,127,122,127,131,0
1232,127,131,128,135,128,123,128,128,0
1236,129,127,128,124,128,128,128,130,0
1239,127,126,130,133,126,131,131,129,0
1245,126,125,129,136,127,128,128,128,0
1249,125,131,127,121,127,128,125,132,0
1252,127,129,126,126,127,126,125,127,0
1256,128,131,126,120,128,124,125,136,0
1259,126,128,127,122,129,128,127,122,0
1262,130,129,127,125,127,128,128,132,0
1265,129,128,126,124,128,131,128,124,0
1268,126,127,126,128,128,126,129,123,0
1271,126,127,128,135,127,127,127,125,0
1274,126,128,128,129,127,130,129,119,0
1277,130,127,129,132,127,124,127,126,0
1279,126,128,128,139,126,127,131,123,0
1282,126,126,128,135,127,129,129,122,0
1285,127,127,127,121,128,130,127,132,0
1288,130,130,126,124,128,126,127,132,0
1292,127,130,126,125,129,128,125,129,0
1295,126,128,126,122,128,128,126,134,0
1299,127,129,129,124,127,129,128,129,0
1306,131,128,128,128,128,124,129,125,0
1310,128,127,128,133,128,125,129,121,0
1314,127,128,128,127,127,125,125,126,0
1317,126,127,126,127,128,127,126,124,0
1320,129,128,126,125,127,130,129,120,0
1322,127,126,129,138,124,131,129,125,0
1325,126,124,129,135,126,127,128,122,0
1330,127,128,128,124,128,128,127,130,0
1333,129,127,127,122,128,130,128,129,0
1337,128,129,127,124,128,131,127,132,0
1341,126,126,128,123,128,127,126,124,0
1344,128,128,129,128,128,127,128,128,0
1347,129,128,128,128,127,130,129,130,0
1350,127,128,127,124,128,129,128,126,0
1353,126,128,128,126,128,125,129,126,0
1356,128,127,126,127,128,130,128,129,0
1360,130,128,127,126,128,129,128,130,0
1363,128,126,127,123,128,130,128,130,0
1366,128,125,129,138,126,128,131,125,0
1370,127,121,129,134,127,128,126,128,0
1373,129,130,128,123,128,132,128,131,0
1376,128,127,127,122,128,130,127,129,0
1380,126,128,127,124,128,130,126,129,0
1383,127,128,126,130,128,126,128,134,0
1386,129,129,128,131,127,126,126,126,0
1389,128,127,129,128,128,123,128,129,0
1392,126,128,128,137,127,128,130,123,0
1396,126,126,128,136,126,129,130,123,0
1399,130,129,128,122,127,128,127,127,0
1403,128,127,128,128,127,126,130,123,0
1408,127,125,129,134,126,129,129,124,0
1412,123,128,128,119,128,128,126,131,0
1417,129,128,125,120,128,128,127,131,0
1422,127,129,128,126,128,124,126,128,0
1426,125,128,129,126,128,127,127,122,0
1430,126,128,126,123,128,127,126,129,0
1432,128,128,126,125,127,130,127,127,0
1435,129,127,127,133,128,130,127,125,0
1438,128,129,128,126,129,127,129,125,0
1441,126,124,129,138,126,125,128,130,0
1444,126,129,127,122,128,126,125,130,0
1447,128,130,128,125,129,125,127,124,0
1450,129,130,126,121,128,132,127,128,0
1453,127,129,128,121,128,123,127,131,0
1457,128,128,127,125,127,130,127,129,0
1461,128,127,127,130,127,128,127,120,0
1464,127,127,129,139,126,129,129,123,0
1467,126,125,129,136,126,128,130,125,0
1505,128,128,127,123,128,125,128,132,0
1515,129,128,126,126,128,123,127,133,0
1525,129,129,128,130,128,125,126,126,0
1533,126,127,128,125,128,131,129,120,0
1541,127,128,127,128,128,127,128,129,0
1554,128,126,128,129,128,128,127,125,0
1561,127,128,128,123,129,124,127,130,0
1567,126,127,128,137,126,129,130,126,0
1572,127,125,129,138,127,130,128,129,0
1578,131,128,127,127,128,125,128,129,0
1583,128,129,127,124,128,128,128,132,0
1587,128,127,127,122,128,128,127,130,0
1598,129,127,127,124,128,125,127,131,0
1593,128,127,126,125,127,128,126,131,0
1602,128,130,128,131,129,124,127,125,0
1638,126,126,129,135,125,128,131,123,0
1645,126,126,129,127,128,125,126,128,0
1651,129,128,128,125,128,129,128,126,0
1656,128,127,126,127,128,129,127,128,0
1661,127,128,127,123,127,131,127,128,0
1666,124,130,128,128,128,125,127,125,0
1670,129,129,128,125,127,127,128,127,0
1674,128,128,128,128,128,126,126,125,0
1678,124,126,128,124,127,128,126,126,0
1682,127,128,126,124,128,129,128,130,0
1685,129,128,128,126,128,124,128,132,0
1688,128,126,129,138,126,127,130,122,0
1691,127,123,129,138,125,127,129,124,0
1695,125,126,126,122,128,127,126,131,0
1698,127,130,127,122,128,128,127,130,0
1701,127,127,126,123,128,127,126,124,0
1705,126,127,128,125,127,130,127,120,0
1708,126,128,125,127,127,127,127,130,0
1711,129,129,127,121,127,127,127,130,0
1714,129,129,128,128,126,129,130,126,0
1717,126,128,127,121,129,123,126,129,0
1721,128,127,126,121,129,130,129,127,0
1724,131,127,126,125,128,128,127,128,0
1729,130,127,127,123,128,127,128,126,0
1735,127,127,126,131,128,126,127,124,0
1738,127,128,127,127,128,128,127,125,0
1742,129,130,129,124,128,124,128,129,0
1746,129,128,128,127,128,124,129,123,0
1751,127,124,129,138,125,130,130,126,0
1755,126,123,128,136,126,127,129,128,0
1761,129,129,125,120,128,130,127,132,0
1764,127,128,128,126,128,127,127,132,0
1767,128,127,126,122,128,130,127,132,0
1771,125,128,128,127,129,124,127,133,0
1774,129,128,126,123,128,131,127,132,0
1777,127,129,128,129,128,125,127,131,0
1781,127,128,128,128,128,123,126,125,0
1784,126,127,128,127,128,127,127,131,0
1787,126,129,128,125,128,125,127,121,0
1790,128,127,128,126,127,131,127,120,0
1794,127,126,126,126,127,131,128,130,0
1797,126,128,130,138,125,128,130,125,0
1800,127,126,129,138,126,129,129,129,0
1803,129,127,125,120,128,131,127,130,0
1807,128,131,126,122,128,126,124,131,0
1811,126,129,128,121,127,131,127,131,0
1813,128,129,128,126,128,126,127,126,0
1841,129,128,127,130,127,128,126,129,0
1845,128,127,129,126,127,130,127,120,0
1850,126,126,128,128,128,131,128,129,0
1859,127,129,128,126,128,127,128,128,0
1864,129,127,128,128,127,124,127,130,0
1869,127,127,126,127,128,129,127,127,0
1873,127,128,128,124,129,128,130,123,0
1877,127,125,130,141,125,126,132,124,0
1881,128,125,128,124,127,128,127,126,0
1885,127,127,128,128,128,130,126,126,0
1889,127,128,127,124,128,129,127,131,0
1894,128,129,129,126,128,127,128,123,0
1898,128,127,127,125,127,128,128,132,0
1901,128,128,127,124,128,131,128,129,0
1905,126,127,128,134,128,130,127,125,0
1908,127,127,128,126,127,129,127,127,0
1912,129,128,127,131,127,128,128,129,0
1915,128,128,128,140,126,131,130,123,0
1918,126,123,128,135,127,126,127,128,0
1921,127,128,126,120,128,128,126,132,0
1925,129,128,125,122,128,129,128,132,0
1928,129,127,127,122,128,126,126,130,0
1931,125,129,128,121,129,125,126,129,0
1934,128,127,128,124,128,128,128,126,0
1936,129,127,128,127,127,127,127,129,0
1942,129,127,127,130,128,126,127,126,0
1945,127,128,127,126,128,130,127,123,0
1948,126,124,129,140,126,127,129,124,0
1952,129,128,126,124,127,131,128,129,0
1954,128,127,127,121,128,127,126,126,0
1957,126,127,128,123,128,127,126,130,0
1961,126,127,128,125,128,128,128,123,0
1976,129,129,128,124,128,128,127,129,0
1980,128,129,129,141,126,128,130,123,0
1985,126,126,130,136,129,128,126,122,0
1989,126,127,128,120,129,126,127,131,0
1993,129,128,126,122,127,129,127,130,0
1998,129,130,129,125,128,125,128,132,0
2001,127,128,128,122,128,122,127,130,0
2004,127,129,128,124,127,125,127,130,0
2008,129,128,128,124,128,129,128,129,0
2012,129,128,128,129,128,127,127,120,0
2019,126,126,129,131,127,129,127,131,0
2023,127,125,130,139,124,128,131,122,0
2026,128,125,129,136,126,125,128,130,0
2029,129,128,128,126,128,127,126,127,0
2033,127,126,128,127,128,127,128,128,0
2042,126,127,127,125,128,129,127,135,0
2046,128,128,128,128,127,128,128,133,0
2049,130,130,127,128,128,125,129,129,0
2053,130,127,127,126,127,127,128,118,0
2056,127,127,128,130,128,127,127,126,0
2060,128,128,128,132,128,129,128,126,0
2063,129,127,127,127,127,123,128,123,0
2067,127,127,128,130,128,129,127,130,0
2070,126,127,128,122,128,126,129,129,0
2111,129,129,128,125,128,128,127,124,0
2120,129,127,126,125,128,130,131,125,0
2128,128,123,128,136,125,129,130,126,0
2134,127,125,129,137,127,126,128,131,0
2141,128,129,128,124,129,125,126,127,0
2147,128,128,127,126,129,127,126,128,0
2152,127,128,125,126,128,130,129,117,0
2158,126,127,125,123,128,128,127,129,0
2179,126,127,128,125,127,128,128,118,0
2184,130,129,128,127,128,127,127,122,0
2188,128,127,127,124,128,124,125,127,0
2193,126,127,128,122,127,130,126,125,0
2198,126,128,127,125,128,128,127,129,0
2204,129,128,128,128,128,129,130,123,0
2210,128,126,126,127,129,125,126,124,0
2213,125,128,128,136,128,128,128,126,0
2217,126,128,128,127,128,124,129,129,0
2223,129,128,128,134,127,125,127,128,0
2228,128,129,129,132,128,130,126,127,0
2231,126,126,129,138,125,131,129,127,0
2234,127,125,128,136,127,124,126,129,0
2237,130,128,129,126,128,126,126,128,0
2240,128,127,125,122,127,127,125,132,0
2246,125,127,128,124,128,131,127,131,0
2250,127,129,126,124,128,128,128,124,0
2253,129,128,127,123,128,126,128,132,0
2255,128,131,129,134,128,128,127,126,0
2259,126,129,128,128,128,128,127,130,0
2262,126,127,126,123,127,127,127,131,0
2264,127,129,129,123,127,129,128,129,0
2268,130,128,128,128,128,125,126,125,0
2271,125,129,127,124,128,128,127,120,0
2274,127,129,128,123,128,130,128,128,0
2277,129,129,128,126,128,128,127,126,0
2279,126,126,129,139,126,130,129,125,0
2282,127,123,129,135,125,126,130,124,0
2285,128,124,128,132,128,131,128,130,0
2287,128,129,127,121,128,129,127,132,0
2292,129,128,127,124,128,130,127,125,0
2314,128,127,128,124,128,130,127,126,0
2320,127,129,128,121,127,128,127,130,0
2325,130,130,126,122,127,130,128,128,0
2330,129,129,128,126,128,123,126,125,0
2334,127,127,129,140,127,128,129,121,0
2339,126,126,128,135,129,127,125,130,0
2344,128,128,128,125,128,129,127,129,0
2349,129,128,127,127,128,127,127,129,0
2357,125,129,128,121,128,126,125,124,0
2362,126,128,128,126,128,129,126,126,0
2365,128,129,126,125,127,126,127,128,0
2368,128,127,127,125,128,123,126,131,0
2372,127,127,127,123,128,126,128,129,0
2375,127,128,126,138,128,129,128,119,0
2378,128,128,127,131,128,129,127,131,0
2381,129,128,127,139,127,125,130,123,0
2385,126,128,128,126,128,123,128,121,0
2388,127,127,128,123,128,126,129,131,0
2392,129,127,127,128,127,125,128,129,0
2394,134,124,129,139,124,132,131,124,0
2397,128,124,129,136,127,128,129,122,0
2401,128,127,127,125,128,129,126,129,0
2404,129,128,125,122,128,128,127,134,0
2408,129,127,125,121,127,130,127,132,0
2411,128,129,129,127,127,125,128,123,0
2414,127,128,126,127,129,127,126,128,0
2417,127,127,128,125,127,129,128,130,0
2420,129,128,127,136,128,125,127,122,0
2423,128,127,128,130,128,128,126,123,0
2426,126,124,129,138,125,126,129,124,0
2429,125,127,127,123,128,127,126,128,0
2432,130,128,127,127,128,131,128,126,0
2436,128,128,129,128,128,127,126,129,0
2440,124,129,128,121,127,131,127,132,0
2444,127,130,127,124,128,128,126,127,0
2446,128,127,128,128,127,130,128,125,0
2449,128,128,126,122,129,123,126,134,0
2454,126,128,128,124,128,126,127,127,0
2459,126,128,128,131,128,127,127,125,0
2466,131,127,127,124,128,125,128,129,0
2470,128,128,128,131,128,128,128,117,0
2475,126,124,130,138,125,127,130,125,0
2480,126,125,128,135,129,127,126,130,0
2483,130,128,128,126,127,130,127,127,0
2487,129,128,128,128,128,126,126,129,0
2491,126,128,128,127,129,125,127,129,0
2494,127,128,128,128,127,130,129,125,0
2498,129,127,128,123,127,131,128,129,0
2501,127,127,126,129,128,129,127,128,0
2504,127,127,128,124,128,124,128,120,0
2508,127,129,128,125,128,126,126,129,0
2511,128,128,126,125,127,129,128,130,0
2514,128,128,127,130,127,129,127,125,0
2518,126,127,129,123,128,127,127,123,0
2521,127,127,128,128,127,124,127,129,0
2525,128,128,128,128,127,131,128,129,0
2529,128,126,129,138,125,131,130,128,0
2532,126,125,129,137,127,128,129,124,0
2537,126,127,127,123,129,127,127,134,0
2541,126,127,128,127,128,128,127,132,0
2544,127,128,126,125,127,129,127,126,0
2548,128,127,125,122,127,131,128,124,0
2551,127,129,127,125,128,127,127,126,0
2554,129,127,128,127,128,129,128,126,0
2558,128,128,128,122,128,127,126,128,0
2561,126,127,126,125,128,128,127,125,0
2564,125,129,129,134,129,125,126,125,0
2568,129,130,128,125,128,125,127,126,0
2572,128,128,126,127,128,127,128,129,0
2576,127,128,127,126,128,126,127,127,0
2580,127,128,126,138,127,128,130,124,0
2586,128,125,129,136,126,128,130,124,0
2590,128,127,127,119,128,129,127,132,0
2593,128,128,127,120,128,131,127,129,0
2596,123,128,128,119,128,131,127,130,0
2599,129,131,127,125,128,125,126,124,0
2603,131,128,128,121,128,128,127,129,0
2606,128,127,128,130,128,129,127,126,0
2610,125,128,128,125,128,127,127,126,0
2614,127,127,128,133,127,127,128,130,0
2617,128,127,128,127,127,127,128,128,0
2620,128,128,128,127,128,126,126,130,0
2624,127,128,128,130,128,129,127,132,0
2628,127,128,128,124,129,125,127,128,0
2631,131,127,127,130,129,125,130,123,0
2634,127,123,129,135,126,131,131,126,0
2637,126,124,129,138,126,125,128,135,0
2640,129,130,127,120,128,131,127,132,0
2644,129,129,127,127,128,130,127,128,0
2647,128,128,126,120,128,130,127,129,0
2650,126,128,128,128,128,130,127,131,0
2653,127,128,126,123,127,131,128,130,0
2657,129,129,127,127,128,124,126,125,0
2662,127,128,126,127,129,126,126,125,0
2665,124,127,126,124,128,131,128,126,0
2669,125,128,126,125,127,129,128,129,0
2672,127,128,128,130,128,129,128,127,0
2676,130,127,127,131,128,125,127,122,0
2679,128,123,128,137,125,128,130,126,0
2682,125,127,128,121,128,129,127,133,0
2686,128,131,128,129,128,127,126,124,0
2690,132,128,128,123,128,130,126,133,0
2695,127,128,127,128,128,125,126,123,0
2701,127,128,129,128,128,129,128,129,0
2706,128,128,127,124,128,126,127,128,0
2709,127,127,129,125,127,124,126,121,0
2711,128,127,126,126,129,128,126,122,0
2715,128,128,129,132,127,123,126,124,0
2718,129,127,126,126,127,125,127,124,0
2722,128,128,127,130,128,125,128,127,0
2726,127,126,129,137,127,125,129,121,0
2729,126,124,129,136,126,128,130,122,0
2732,129,128,127,124,128,129,128,133,0
2735,129,129,127,123,128,123,127,130,0
2739,126,128,126,123,128,126,126,127,0
2744,126,128,129,138,129,123,128,133,0
2747,129,128,127,127,128,124,126,133,0
2751,129,127,129,126,128,128,127,131,0
2754,127,129,129,137,126,129,130,123,0
2757,125,126,129,137,126,125,128,128,0
2760,130,128,127,130,126,128,127,132,0
2769,129,129,128,124,128,126,126,129,0
2774,127,126,126,123,128,128,127,128,0
2779,127,128,127,131,128,127,128,132,0
2782,129,131,129,124,128,127,127,127,0
2785,128,128,128,130,128,125,129,123,0
2789,127,128,127,128,128,127,128,122,0
2792,126,125,130,136,125,131,130,123,0
2795,128,126,130,137,127,128,126,129,0
2798,128,129,128,124,127,127,126,130,0
2802,126,127,127,125,127,128,127,133,0
2805,125,129,126,121,128,125,128,129,0
2809,127,128,126,125,127,128,129,129,0
2813,131,128,127,133,127,128,128,126,0
2817,128,128,128,124,128,124,126,127,0
2822,127,128,128,127,127,125,130,120,0
2826,128,129,127,128,127,127,128,127,0
2829,128,127,126,127,127,127,127,122,0
2833,127,128,129,138,126,123,129,124,0
2836,127,123,130,137,126,127,128,125,0
2839,128,128,125,123,128,128,127,128,0
2842,129,129,127,123,128,127,126,131,0
2845,126,127,129,135,127,128,126,131,0
2849,126,127,126,132,130,129,127,133,0
2852,129,127,126,123,127,130,129,121,0
2856,130,128,128,128,127,132,128,119,0
2860,127,127,127,124,128,127,126,123,0
2867,125,126,129,133,127,125,127,131,0
2871,126,130,128,126,128,129,126,134,0
2874,130,128,127,121,128,130,127,134,0
2880,128,127,128,126,128,128,127,129,0
2883,126,129,128,127,129,128,126,117,0
2887,126,127,129,139,126,131,130,126,0
2892,129,126,130,135,126,126,126,136,0
2895,129,128,128,121,128,125,126,133,0
2901,127,128,127,121,129,126,126,127,0
2905,127,127,128,121,128,128,128,126,0
2909,130,128,127,123,128,129,129,117,0
2912,128,127,128,122,128,128,128,124,0
2916,126,128,128,129,128,131,128,118,0
2919,127,127,128,124,128,130,127,130,0
2922,130,129,127,126,128,126,126,125,0
2926,128,127,129,140,124,130,130,130,0
2929,126,124,128,137,126,126,129,124,0
2934,126,126,128,121,127,132,128,127,0
2954,131,129,128,124,128,128,126,128,0
2959,127,126,128,122,128,126,125,128,0
2963,127,127,128,125,128,130,125,130,0
2967,124,130,129,129,128,127,127,135,0
2971,130,127,128,128,127,127,128,120,0
2974,129,128,129,125,127,124,128,131,0
2978,125,128,127,131,128,125,126,122,0
2981,126,127,128,130,128,126,126,123,0
2985,129,129,129,128,128,130,128,127,0
2989,128,127,126,126,127,130,127,123,0
2992,125,127,130,135,127,127,130,119,0
2995,126,126,129,136,126,129,130,130,0
2999,127,128,128,126,128,126,126,130,0
3002,128,127,127,125,127,129,128,127,0
3005,129,127,128,124,128,130,126,131,0
3009,127,128,128,122,129,125,125,125,0
3013,130,130,126,124,128,128,127,129,0
3015,127,128,127,127,127,130,127,127,0
3020,127,127,126,125,128,127,129,120,0
3024,127,123,129,138,126,127,131,123,0
3027,128,129,127,123,128,126,127,131,0
3030,133,127,126,123,128,128,127,126,0
3034,127,126,129,125,128,127,127,120,0
3037,127,126,128,127,127,130,127,130,0
3040,129,129,128,129,127,131,127,129,0
3044,128,127,128,125,128,129,127,127,0
3047,127,127,128,133,127,128,128,118,0
3050,124,126,129,132,127,128,128,133,0
3053,129,128,128,124,127,126,128,133,0
3056,129,128,128,128,128,126,128,126,0
3061,125,126,129,141,126,126,130,128,0
3065,126,124,129,136,125,125,128,130,0
3075,129,131,126,121,128,129,126,133,0
3080,130,128,128,125,129,128,127,131,0
3083,127,127,128,122,127,131,125,127,0
3087,126,127,126,120,127,127,126,134,0
3090,129,128,128,122,128,127,126,130,0
3094,129,128,129,128,127,129,127,127,0
3097,126,129,128,130,128,126,128,132,0
3100,126,128,127,137,127,123,126,123,0
3104,128,127,128,131,127,129,128,129,0
3107,129,129,127,130,128,128,127,131,0
3111,127,128,128,122,128,125,127,134,0
3114,126,126,129,135,126,127,130,122,0
3119,127,125,129,136,128,130,128,126,0
3122,132,128,127,121,128,129,126,129,0
3125,128,129,128,132,128,128,127,130,0
3128,125,127,128,130,128,128,126,129,0
3132,127,127,128,126,128,130,128,128,0
3135,129,127,126,126,127,130,128,128,0
3139,127,126,127,123,128,130,127,123,0
3142,125,126,129,136,127,126,129,122,0
3145,126,126,129,133,125,129,126,128,0
3149,129,128,127,125,129,125,126,128,0
3151,127,127,127,123,128,130,126,127,0
3154,126,127,129,134,128,129,126,131,0
3157,126,128,126,121,127,129,127,133,0
3160,128,130,128,124,128,126,128,130,0
3164,129,126,125,122,128,131,128,128,0
3167,128,128,128,134,129,128,127,127,0
3170,127,127,128,126,127,128,129,121,0
3176,129,127,126,128,127,129,128,129,0
3181,128,129,129,131,128,127,127,127,0
3185,125,126,130,135,124,131,130,129,0
3188,126,125,129,137,126,126,130,123,0
3191,130,128,128,125,129,128,127,127,0
3194,128,127,127,126,127,127,126,127,0
3198,126,127,128,123,128,130,127,116,0
3200,126,127,128,125,128,128,127,129,0
3203,130,129,128,126,127,127,128,127,0
3206,129,127,125,128,128,131,129,131,0
3210,127,128,126,124,128,128,127,129,0
3213,125,130,129,122,127,130,129,128,0
3216,129,128,127,129,127,129,129,120,0
3220,127,129,126,134,128,129,127,133,0
3223,127,128,128,128,127,124,130,122,0
3226,126,126,129,137,126,127,130,121,0
3230,129,128,127,121,127,127,126,126,0
3234,129,126,127,121,127,127,126,129,0
3237,126,127,126,127,129,124,127,130,0
3240,126,128,127,128,127,129,128,134,0
3243,129,128,128,126,128,127,127,131,0
3249,128,128,129,124,127,128,127,121,0
3252,125,126,127,129,127,129,129,118,0
3256,127,127,127,124,128,126,127,127,0
3259,126,129,127,125,127,128,127,134,0
3263,128,129,127,135,127,132,128,130,0
3267,128,127,126,123,127,129,127,127,0
3270,127,126,129,138,124,131,130,128,0
3274,127,124,129,139,126,128,127,130,0
3277,128,127,128,127,128,130,128,131,0
3281,127,128,126,125,128,131,128,131,0
3286,128,126,128,123,127,126,127,126,0
3291,127,127,126,125,128,124,128,132,0
3295,129,129,128,132,128,127,128,129,0
3301,128,128,127,120,129,125,126,132,0
3306,127,128,126,122,128,125,127,129,0
3309,127,128,128,126,128,129,128,125,0
3312,129,129,127,128,127,131,129,126,0
3316,127,128,126,127,128,129,128,120,0
3319,125,126,128,127,129,126,127,126,0
3322,127,125,129,136,126,128,130,125,0
3326,128,125,128,134,125,130,129,124,0
3329,127,129,127,119,127,131,126,133,0
3332,130,127,127,118,128,131,126,134,0
3336,128,128,125,123,128,128,127,132,0
3339,129,128,126,125,128,124,129,128,0
3342,129,128,128,127,129,124,126,126,0
3346,124,127,127,123,128,124,127,127,0
3349,127,127,127,125,127,128,127,122,0
3353,129,127,129,125,127,126,127,125,0
3356,126,128,128,132,127,123,128,131,0
3360,124,126,129,140,124,130,130,127,0
3363,126,124,130,135,126,132,127,127,0
3366,129,129,128,123,128,128,126,123,0
3372,129,127,128,122,128,131,126,127,0
3375,126,127,125,126,127,130,127,129,0
3380,128,128,128,124,128,126,127,130,0
3383,129,128,128,130,128,129,127,127,0
3387,128,128,127,125,128,128,128,119,0
3390,125,129,126,123,128,127,126,127,0
3393,125,127,126,121,127,126,126,125,0
3397,127,127,126,124,126,128,127,119,0
3400,128,127,129,138,127,127,130,124,0
3407,127,124,127,134,126,128,130,125,0
3411,129,126,128,126,128,130,127,131,0
3414,130,127,127,125,127,128,128,129,0
3417,127,128,128,128,128,127,126,129,0
3421,126,127,126,127,127,129,127,131,0
3424,125,129,128,121,128,127,127,128,0
3427,127,129,128,129,127,123,127,130,0
3430,129,127,128,127,127,130,127,130,0
3433,127,127,126,128,127,127,127,130,0
3437,124,128,129,124,128,126,127,127,0
3441,128,128,128,129,128,124,127,126,0
3444,129,130,128,124,128,124,126,128,0
3447,128,128,126,125,127,124,126,125,0
3450,124,126,129,137,125,130,129,126,0
3453,129,125,129,132,129,129,126,129,0
3456,129,128,126,119,127,131,127,129,0
3460,128,128,126,121,128,128,126,131,0
3463,125,127,128,123,128,131,127,133,0
3466,128,128,127,127,128,130,129,130,0
3469,129,128,128,128,128,127,127,129,0
3474,127,127,129,129,128,127,127,124,0
3478,126,126,128,129,126,130,130,123,0
3481,126,129,128,126,127,129,127,132,0
3483,129,127,128,124,128,127,128,128,0
3486,127,128,128,129,128,127,125,124,0
3490,127,127,126,126,128,131,128,123,0
3492,128,128,127,126,128,127,127,126,0
3496,128,127,128,137,127,123,130,124,0
3499,126,124,128,137,125,127,131,127,0
3504,126,124,128,136,128,130,127,131,0
3507,129,128,128,123,128,128,127,129,0
3510,129,128,125,127,127,129,126,131,0
3516,127,128,127,119,128,131,125,129,0
3520,126,128,127,122,129,128,127,132,0
3527,128,129,127,129,127,125,127,127,0
3530,129,129,128,131,128,125,129,126,0
3535,129,128,128,125,128,124,126,124,0
3538,126,127,129,131,128,130,127,126,0
3540,126,127,129,127,128,129,128,129,0
3544,128,127,126,127,127,124,127,132,0
3547,128,128,128,127,127,127,129,123,0
3549,125,124,130,134,124,129,130,127,0
3552,127,126,128,121,129,128,127,130,0
3555,129,128,127,120,128,127,127,130,0
3560,128,130,126,127,128,124,125,133,0
3563,126,129,128,125,128,131,126,129,0
3566,127,128,127,125,128,131,130,127,0
3569,130,129,128,129,128,131,129,128,0
3572,128,127,127,130,128,131,126,131,0
3575,127,128,128,124,128,126,126,130,0
3578,127,128,128,122,128,128,128,127,0
3581,128,128,127,131,127,130,127,130,0
3584,127,128,128,128,128,127,126,117,0
3586,128,124,129,139,124,126,130,124,0
3589,127,125,128,138,127,126,126,131,0
3592,129,128,127,126,128,128,126,129,0
3596,128,127,128,128,127,130,127,131,0
3599,127,126,128,129,128,128,127,124,0
3603,128,127,127,125,128,131,128,129,0
3606,130,128,127,129,127,128,127,126,0
3609,129,127,128,125,128,127,126,123,0
3612,126,127,128,123,127,129,126,130,0
3617,126,127,127,122,128,128,128,126,0
3621,129,129,128,128,127,131,126,132,0
3625,127,127,128,129,128,129,130,125,0
3629,125,123,129,137,124,127,132,119,0
3633,129,125,128,135,126,124,127,129,0
3637,130,129,128,124,128,131,128,130,0
3641,128,129,127,124,129,128,127,128,0
3644,125,128,128,126,128,127,126,130,0
3647,126,127,127,122,128,130,128,128,0
3650,129,129,127,128,127,131,129,123,0
3652,128,128,128,122,128,125,127,127,0
3656,127,127,127,128,128,128,128,123,0
3660,126,127,127,136,128,127,127,129,0
3663,129,129,128,125,128,127,128,129,0
3668,128,128,128,126,127,127,130,124,0
3672,127,125,129,139,126,128,130,120,0
3679,127,125,129,137,125,127,128,134,0
3682,129,129,125,122,127,127,127,135,0
3687,128,128,125,120,128,131,126,133,0
3690,127,128,127,123,128,129,127,127,0
3692,126,128,128,126,129,126,127,126,0
3695,128,127,126,128,128,126,126,124,0
3699,129,130,129,126,128,124,127,129,0
3702,126,127,127,129,128,126,127,127,0
3705,127,127,128,129,128,129,129,124,0
3709,128,127,127,128,127,123,127,128,0
3712,129,127,126,130,127,125,128,133,0
3715,124,125,130,140,124,129,131,124,0
3718,126,124,129,135,126,128,129,123,0
3721,127,129,127,121,128,129,126,132,0
3725,130,128,126,121,129,127,126,130,0
3728,125,129,127,120,128,130,127,133,0
3731,128,128,126,122,129,126,126,135,0
3734,128,130,126,124,128,128,128,131,0
3739,129,128,126,130,127,125,127,121,0
3744,128,127,129,140,128,123,129,125,0
3747,127,125,129,131,128,127,127,127,0
3750,127,128,128,124,128,128,128,129,0
3753,129,128,127,123,127,130,127,129,0
3757,127,127,128,125,128,125,126,129,0
3760,127,127,127,133,127,128,129,123,0
3766,126,126,129,136,126,130,129,123,0
3769,130,130,128,126,128,125,125,131,0
3773,128,128,127,123,128,128,126,132,0
3776,127,127,128,127,128,125,127,126,0
3779,128,127,129,138,128,129,127,129,0
3783,129,129,127,129,128,123,127,130,0
3787,128,129,128,128,128,131,126,125,0
3789,126,128,126,122,128,124,126,126,0
3793,128,127,128,128,128,125,127,129,0
3797,128,128,126,127,127,129,128,131,0
3800,128,128,129,140,124,132,131,128,0
3803,127,123,129,138,124,127,129,123,0
3805,127,125,129,134,129,125,126,130,0
3808,130,129,128,122,127,131,126,133,0
3811,129,127,128,127,128,125,125,123,0
3816,125,127,128,128,129,127,126,125,0
3822,127,127,128,123,127,131,127,130,0
3825,128,128,128,124,128,126,128,130,0
3829,126,129,128,127,128,126,126,121,0
3832,127,127,128,133,129,124,128,131,0
3836,128,128,128,124,128,131,128,122,0
3839,129,128,128,128,127,123,129,128,0
3842,128,127,129,130,127,129,130,125,0
3845,125,125,129,136,126,128,130,121,0
3851,124,128,128,125,128,124,126,132,0
3856,130,131,128,129,128,128,126,135,0
3861,129,127,126,127,128,128,127,124,0
3866,127,126,126,127,128,124,125,125,0
3870,126,128,128,122,128,124,128,133,0
3874,129,129,126,125,128,128,127,124,0
3877,128,127,128,123,128,128,127,130,0
3880,127,128,128,126,127,125,126,122,0
3883,125,127,126,125,128,123,126,126,0
3887,129,127,127,125,127,125,129,130,0
3890,129,127,127,126,128,128,131,130,0
3893,128,123,128,136,125,127,131,125,0
3897,126,125,129,133,127,130,127,129,0
3900,129,130,126,121,128,127,126,127,0
3904,127,128,128,124,129,132,128,130,0
3907,127,128,128,126,127,131,126,130,0
3910,126,127,128,121,127,131,127,132,0
3912,129,129,126,124,128,126,127,128,0
3915,128,130,128,128,128,125,127,121,0
3918,128,127,126,122,128,128,127,129,0
3921,126,128,126,139,129,126,127,131,0
3924,129,128,128,124,127,130,129,126,0
3927,130,129,128,126,128,129,128,127,0
3931,127,127,128,131,127,129,128,124,0
3934,126,127,126,123,128,129,128,129,0
3938,127,128,127,129,127,127,127,123,0
3941,129,129,129,140,125,129,130,130,0
3944,125,124,130,138,126,126,129,124,0
3947,127,126,128,120,128,127,127,123,0
3950,130,127,125,127,127,131,128,129,0
3954,128,127,128,126,128,126,127,127,0
3956,127,128,126,121,128,125,126,132,0
3961,127,129,126,126,128,126,126,131,0
3965,127,127,126,124,128,128,127,127,0
3970,130,130,129,131,128,128,127,134,0
3973,129,128,128,127,128,124,126,127,0
3981,126,127,129,129,128,124,127,127,0
3985,128,129,128,126,128,123,129,128,0
3990,130,129,128,130,128,125,127,128,0
3994,129,128,127,131,129,125,128,125,0
3998,127,127,126,125,128,128,130,129,0
4001,126,124,130,136,125,127,129,129,0
4004,129,128,127,124,128,130,128,125,0
4006,128,127,127,121,128,128,125,128,0
4010,127,127,127,124,128,130,126,128,0
4013,126,127,125,121,128,129,127,126,0
4016,128,127,126,128,127,128,128,128,0
4020,128,128,130,140,126,129,129,124,0
4024,124,128,127,128,128,126,126,125,0
4027,126,129,128,123,127,128,128,121,0
4030,129,128,126,126,128,127,126,130,0
4033,127,128,127,123,127,128,130,122,0
4037,126,124,128,135,126,127,129,120,0
4040,128,128,125,123,128,127,127,126,0
4043,129,127,126,127,127,128,127,129,0
4047,129,128,128,131,128,127,126,127,0
4051,126,127,128,127,128,126,128,127,0
4054,126,129,129,130,128,127,127,132,0
4057,129,129,128,125,128,129,127,124,0
4060,126,128,127,131,128,127,128,122,0
4063,129,126,128,129,127,128,127,128,0
4067,126,127,127,124,127,128,128,126,0
4070,128,128,128,126,127,129,128,127,0
4074,127,127,127,129,127,128,131,126,0
4078,127,123,130,135,126,127,129,120,0
4083,126,126,128,117,129,125,127,130,0
4087,130,131,127,124,128,128,126,129,0
4091,128,128,127,127,128,126,126,131,0
4094,128,127,128,122,128,124,126,127,0
4096,126,127,128,123,128,128,126,130,0
4099,129,129,128,124,128,128,128,129,0
4102,128,127,128,137,127,128,127,127,0
4105,127,127,125,126,127,130,128,126,0
4108,125,127,128,136,127,129,128,125,0
4110,128,127,128,124,127,128,128,125,0
4114,128,127,127,127,127,129,127,125,0
4117,125,126,130,135,124,129,130,129,0
4120,127,125,129,134,127,127,128,128,0
4123,128,130,127,118,129,128,126,130,0
4127,129,129,127,121,128,130,125,129,0
4130,126,130,127,124,129,124,126,128,0
4135,127,127,127,127,128,125,128,129,0
4141,128,129,127,127,127,128,127,130,0
4144,129,128,128,127,128,125,129,132,0
4147,127,130,128,125,129,124,125,130,0
4152,127,128,128,121,128,130,126,130,0
4155,128,129,128,122,127,123,127,130,0
4159,128,129,127,126,127,123,126,128,0
4162,128,129,129,130,128,125,127,126,0
4167,128,128,130,140,125,129,131,127,0
4170,128,125,129,138,128,129,128,132,0
4173,130,130,128,124,127,129,127,129,0
4176,128,127,126,125,128,131,128,132,0
4180,127,128,127,130,128,125,127,130,0
4184,128,130,126,123,127,126,127,122,0
4190,130,128,128,123,127,129,127,129,0
4195,128,128,128,133,128,131,127,120,0
4200,126,128,128,137,126,127,130,122,0
4203,127,124,129,138,125,126,129,121,0
4206,129,129,126,121,128,127,127,130,0
4211,128,127,125,124,128,129,127,128,0
4215,126,128,128,122,127,131,127,133,0
4218,128,128,127,123,128,128,127,127,0
4221,129,127,126,128,127,126,129,128,0
4224,128,128,128,124,128,131,127,129,0
4227,127,128,129,134,128,131,127,119,0
4231,127,127,128,127,127,127,129,127,0
4234,129,127,126,127,127,128,127,125,0
4237,127,127,127,136,127,129,130,126,0
4241,127,124,129,138,125,126,130,121,0
4244,126,129,128,125,128,126,127,131,0
4247,129,128,128,129,128,128,127,135,0
4251,127,127,128,130,128,128,128,127,0
4254,129,127,127,125,129,126,126,124,0
4257,127,127,128,130,127,126,128,128,0
4261,129,128,127,127,128,127,127,132,0
4264,128,129,128,128,128,127,125,127,0
4268,126,127,127,125,127,132,127,126,0
4271,126,128,126,124,127,128,127,128,0
4274,128,128,127,128,127,127,127,126,0
4284,129,128,128,124,128,125,128,121,0
4287,126,128,129,137,126,129,130,124,0
4291,126,124,128,138,125,127,131,125,0
4295,130,128,127,121,128,126,126,126,0
4298,129,128,128,127,128,128,127,135,0
4304,127,129,126,121,127,131,127,133,0
4308,123,129,129,125,128,129,127,126,0
4313,131,126,126,127,127,129,128,130,0
4320,128,127,126,125,128,128,127,125,0
4325,127,128,126,125,128,130,129,117,0
4328,128,128,128,135,128,127,127,130,0
4332,128,128,127,128,127,125,127,132,0
4335,127,128,128,125,126,126,129,124,0
4339,127,125,129,134,125,128,130,124,0
4342,126,124,128,132,130,131,127,133,0
4345,127,128,128,121,127,129,125,127,0
4348,129,127,128,125,127,126,126,130,0
4351,128,128,128,128,128,125,127,130,0
4355,126,128,128,128,128,127,127,134,0
4358,128,127,128,127,127,127,128,123,0
4362,128,126,129,128,128,123,127,128,0
4365,125,128,127,121,128,125,127,125,0
4368,127,128,127,128,128,131,126,133,0
4372,128,129,126,128,128,124,127,131,0
4375,130,128,126,123,127,123,127,127,0
4379,126,128,128,130,128,127,126,128,0
4382,125,127,126,122,127,128,129,121,0
4385,127,127,129,137,126,131,132,125,0
4389,128,125,129,140,126,126,128,134,0
4394,126,128,128,124,128,127,126,126,0
4397,127,127,127,120,128,130,127,129,0
4400,128,127,126,125,127,129,128,132,0
4403,129,127,127,132,125,130,128,134,0
4406,126,128,128,121,127,128,128,129,0
4411,127,126,128,123,127,125,126,124,0
4414,126,127,128,126,128,126,127,123,0
4417,129,128,127,131,128,130,128,131,0
4423,128,127,128,123,128,127,126,124,0
4428,126,128,128,124,127,127,126,124,0
4432,127,127,128,128,128,128,127,127,0
4435,131,128,127,129,127,127,130,119,0
4438,128,126,129,138,126,127,129,123,0
4442,126,125,129,135,124,130,129,124,0
4445,127,126,127,118,128,130,125,134,0
4448,130,130,125,122,128,129,126,132,0
4451,128,130,125,119,128,129,126,135,0
4455,124,129,128,127,128,128,128,118,0
4457,129,127,125,122,127,131,128,129,0
4460,129,129,128,123,127,128,127,134,0
4463,128,128,128,122,128,127,127,125,0
4466,127,129,128,127,128,125,128,128,0
4470,127,128,128,126,128,126,127,125,0
4473,130,129,128,127,128,127,126,125,0
4477,128,128,128,126,128,126,126,125,0
4480,127,127,127,126,127,127,126,123,0
4483,126,128,127,125,128,129,128,129,0
4486,129,128,128,124,127,127,128,125,0
4489,128,128,128,132,128,126,127,128,0
4492,127,128,128,124,128,125,130,120,0
4496,126,124,129,137,124,131,130,124,0
4500,128,126,129,138,127,130,128,131,0
4503,130,127,127,121,128,127,126,127,0
4506,126,126,128,135,129,127,125,129,0
4510,126,127,127,122,128,129,128,133,0
4513,129,129,126,123,128,127,129,130,0
4517,130,129,128,132,128,126,126,128,0
4520,127,128,128,125,127,130,128,126,0
4522,126,128,128,126,130,124,127,125,0
4527,129,127,126,128,128,127,127,129,0
4532,128,127,128,128,127,130,129,123,0
4537,126,125,129,136,127,125,130,125,0
4539,125,126,128,135,130,132,127,132,0
4543,129,129,127,122,128,126,128,133,0
4546,127,128,127,125,128,125,127,131,0
4549,128,127,127,127,128,127,126,129,0
4552,127,128,128,122,128,129,128,128,0
4555,127,128,128,126,127,127,128,128,0
4558,129,127,129,131,127,132,128,129,0
4561,126,128,127,125,129,125,127,129,0
4563,127,129,127,123,127,126,127,125,0
4566,129,130,129,128,128,125,128,133,0
4570,129,129,128,129,127,127,126,130,0
4573,128,128,128,128,128,124,127,127,0
4576,125,124,129,139,125,127,131,122,0
4588,127,125,129,139,127,130,128,131,0
4593,129,128,127,125,128,125,127,130,0
4597,128,129,128,126,129,128,127,131,0
4600,127,127,126,123,128,127,127,133,0
4604,127,129,128,130,128,128,128,129,0
4607,129,127,128,126,127,131,127,126,0
4611,127,127,127,133,128,129,127,126,0
4614,126,125,129,137,126,129,130,121,0
4617,126,130,128,124,128,125,126,127,0
4620,129,128,126,126,127,128,128,128,0
4624,129,127,126,123,127,129,127,130,0
4627,127,128,128,137,129,124,126,126,0
4631,128,127,128,118,127,130,127,131,0
4637,129,129,128,121,128,125,125,125,0
4640,128,128,126,127,128,125,126,130,0
4644,126,128,129,130,127,123,126,125,0
4648,127,128,127,125,127,128,128,128,0
4655,128,128,127,123,127,126,128,128,0
4659,128,128,128,123,128,125,129,121,0
4664,127,127,127,129,130,127,131,127,0
4667,126,125,129,137,126,127,131,123,0
4671,129,128,125,121,128,128,126,132,0
4674,128,129,127,126,127,132,127,128,0
4677,126,126,126,121,128,131,127,132,0
4681,127,128,126,123,128,125,126,130,0
4684,130,130,127,127,127,129,126,129,0
4688,128,126,129,124,128,123,126,133,0
4691,127,127,128,138,128,126,127,129,0
4695,126,129,127,123,128,127,127,121,0
4698,129,127,128,127,128,129,127,130,0
4703,128,126,128,129,128,125,128,129,0
4706,124,125,129,140,124,130,130,127,0
4709,126,125,128,136,126,126,128,125,0
4712,132,127,125,120,128,127,126,129,0
4715,128,127,127,121,127,131,127,131,0
4718,127,127,128,121,128,128,126,131,0
4720,124,128,128,126,127,126,129,126,0
4723,130,128,126,125,128,128,127,133,0
4726,129,130,128,131,127,126,127,120,0
4730,126,127,129,135,127,130,128,125,0
4733,126,126,128,126,127,128,128,127,0
4736,129,129,127,131,126,124,127,130,0
4740,129,130,129,123,128,123,125,121,0
4743,127,127,128,138,125,130,130,131,0
4746,126,122,128,136,127,128,126,134,0
4749,129,129,128,125,128,128,128,129,0
4754,128,128,128,129,127,127,128,131,0
4760,127,127,128,132,129,129,127,128,0
4764,126,129,129,135,127,127,128,119,0
4767,129,131,126,124,128,124,127,131,0
4771,130,128,128,123,128,126,126,129,0
4774,127,127,129,127,128,125,125,129,0
4777,126,128,128,125,128,128,127,127,0
4780,127,129,128,123,128,128,127,129,0
4783,128,127,128,128,128,126,128,123,0
4786,127,127,127,129,128,127,129,120,0
4789,126,128,128,134,128,127,127,128,0
4792,129,127,127,125,127,129,129,128,0
4795,128,128,129,138,126,127,130,122,0
4797,127,123,129,132,125,128,129,124,0
4801,127,125,128,136,126,127,125,128,0
4806,128,128,128,122,128,128,125,128,0
4810,128,129,127,123,129,130,127,127,0
4813,128,129,125,125,128,131,126,133,0
4816,125,128,126,120,128,128,126,133,0
4820,127,129,126,124,127,130,129,128,0
4823,129,128,128,125,128,124,127,132,0
4826,128,128,128,124,128,127,126,130,0
4829,125,128,128,122,128,123,127,129,0
4832,128,128,127,126,127,128,128,128,0
4835,129,128,128,124,127,124,128,127,0
4839,127,129,128,131,128,127,127,127,0
4841,127,127,128,135,128,129,127,122,0
4845,126,125,129,137,127,126,130,120,0
4849,130,128,127,123,128,128,127,132,0
4851,128,127,126,126,127,130,127,124,0
4856,126,127,129,127,128,129,128,127,0
4860,128,128,127,121,128,128,127,128,0
4866,130,129,127,125,127,126,127,128,0
4872,128,128,126,126,128,131,128,122,0
4876,126,128,127,130,128,125,127,123,0
4879,127,130,129,133,127,130,129,128,0
4887,130,128,128,125,128,125,129,129,0
4894,128,129,129,138,125,132,131,129,0
4898,126,124,129,136,126,125,130,126,0
4901,125,125,128,134,129,127,126,130,0
4905,129,130,127,122,128,130,128,129,0
4909,130,128,127,125,130,131,128,133,0
4912,125,129,128,120,128,127,126,122,0
4916,127,129,127,124,129,128,128,126,0
4919,128,128,126,124,127,127,128,128,0
4922,128,127,128,127,128,128,127,127,0
4925,125,127,129,129,128,128,127,128,0
4930,124,129,128,132,127,129,127,129,0
4932,129,129,128,125,128,126,127,125,0
4936,129,128,127,127,128,127,128,121,0
4940,127,125,129,136,126,126,128,118,0
4942,126,127,129,134,126,131,126,134,0
4945,129,128,126,120,127,131,127,136,0
4948,129,128,127,122,128,124,126,133,0
4951,127,128,127,132,128,128,127,124,0
4954,125,129,126,127,128,124,127,126,0
4958,129,127,129,128,127,129,128,127,0
4962,128,126,128,127,128,122,127,134,0
4965,128,128,128,126,128,124,129,121,0
4968,126,125,129,135,126,129,129,127,0
4970,127,128,127,120,127,131,128,130,0
4974,129,129,127,125,127,126,126,119,0
4979,129,130,126,129,128,128,127,123,0
4985,127,127,126,124,127,128,126,133,0
4988,126,128,127,132,127,130,127,135,0
4992,129,129,128,126,127,124,127,133,0
4995,127,128,127,128,128,125,127,121,0
5000,126,125,129,138,126,129,130,122,0
5004,129,128,128,124,128,127,128,130,0
5007,128,127,127,125,127,128,127,131,0
5012,128,127,128,126,128,125,127,128,0
5016,123,127,127,128,128,124,125,129,0
5021,127,128,126,125,128,128,127,125,0
5024,129,130,129,139,124,128,131,130,0
5029,127,124,129,136,126,128,128,128,0
5031,126,125,129,131,127,126,126,126,0
5035,127,128,125,126,128,130,127,132,0
5038,129,129,125,123,128,128,128,129,0
5041,128,127,128,127,129,124,127,130,0
5044,126,127,128,127,128,129,128,128,0
5048,126,127,128,126,128,131,128,132,0
5051,129,128,126,123,128,126,126,124,0
5054,128,126,129,131,128,131,128,124,0
5057,127,128,128,127,127,128,126,127,0
5061,128,129,128,126,127,132,127,128,0
5064,128,127,126,125,128,129,128,125,0
5070,126,127,129,128,128,126,127,126,0
5073,126,128,129,141,125,129,131,122,0
5076,128,125,129,138,127,129,127,129,0
5082,128,128,126,122,129,126,126,127,0
5080,129,129,127,126,129,132,128,130,0
5086,126,126,127,122,128,130,126,129,0
5091,126,129,128,129,128,125,127,131,0
5097,129,128,126,128,128,132,128,130,0
5100,128,128,128,127,128,126,125,125,0
5104,123,126,126,122,128,125,126,129,0
5107,127,129,127,130,128,127,128,130,0
5110,130,129,127,125,128,128,129,127,0
5113,128,127,128,131,128,126,128,125,0
5117,127,128,128,133,128,124,127,129,0
5120,126,128,128,124,127,125,127,132,0
5123,127,129,127,129,127,129,128,133,0
5127,127,128,127,132,128,127,130,122,0
5130,129,120,129,136,124,132,129,126,0
5133,126,126,129,135,127,125,126,131,0
5135,129,129,127,126,128,131,128,131,0
5139,129,128,126,125,128,124,127,131,0
5142,127,128,126,120,127,131,128,129,0
5145,126,128,126,122,127,128,128,130,0
5148,129,130,126,128,128,125,127,132,0
5151,129,130,128,128,127,128,127,125,0
5154,127,127,126,124,128,129,128,122,0
5158,128,129,126,124,128,128,127,123,0
5161,129,128,125,127,127,130,129,120,0
5165,129,127,129,137,127,130,128,133,0
5169,127,127,127,125,128,129,126,127,0
5172,125,129,127,126,128,125,128,131,0
5175,129,129,128,132,128,124,127,132,0
5179,128,129,128,124,127,128,126,127,0
5188,127,127,128,123,128,129,126,127,0
5193,127,123,130,135,124,131,131,126,0
5198,128,127,128,126,127,125,127,131,0
5202,128,129,127,124,128,125,125,127,0
5207,126,128,127,124,128,130,126,129,0
5211,126,127,125,124,128,127,127,132,0
5214,127,128,126,122,128,126,127,123,0
5217,130,130,128,130,128,124,127,123,0
5221,125,127,126,127,128,132,129,121,0
5224,126,125,129,136,126,127,131,121,0
5227,127,128,127,127,128,128,127,128,0
5230,129,127,128,121,128,131,127,127,0
5233,127,127,129,135,128,126,125,130,0
5236,126,127,128,126,128,128,126,125,0
5240,128,129,128,121,127,130,128,130,0
5243,130,128,128,129,127,128,128,131,0
5246,126,130,129,127,128,128,129,120,0
5253,128,126,126,128,127,130,128,127,0
5257,125,126,128,123,128,130,127,130,0
5261,129,127,128,124,127,129,127,129,0
5264,127,128,128,124,128,127,126,126,0
5268,126,127,126,125,128,128,126,125,0
5271,127,129,127,126,127,127,127,130,0
5274,128,127,127,125,128,127,128,120,0
5277,128,123,129,139,124,130,131,129,0
5282,126,124,130,137,126,125,126,128,0
5285,127,128,126,124,128,131,129,130,0
5308,130,128,125,123,127,127,128,132,0
5312,128,128,126,124,127,125,127,130,0
5317,127,127,127,125,128,126,126,126,0
5320,126,127,126,123,128,129,129,130,0
5324,130,129,127,125,129,125,127,123,0
5329,128,126,128,129,129,127,126,126,0
5334,126,127,128,129,128,128,128,120,0
5337,126,128,128,127,128,124,127,132,0
5340,130,128,126,125,128,129,127,129,0
5344,128,128,128,125,128,124,125,128,0
5347,123,125,129,137,124,130,130,122,0
5350,128,124,128,136,128,131,129,125,0
5353,130,129,127,126,128,131,127,128,0
5356,129,129,128,124,127,131,127,129,0
5359,127,128,127,124,128,128,126,131,0
5361,127,128,128,122,128,129,128,128,0
5365,128,129,127,124,127,129,127,132,0
5368,128,127,126,128,127,128,128,123,0
5375,126,127,128,125,128,126,127,127,0
5379,125,127,129,138,126,128,129,129,0
5383,130,130,128,129,128,125,128,122,0
5386,128,128,128,126,128,128,126,134,0
5390,126,128,129,135,128,128,127,122,0
5393,126,127,126,127,128,128,127,124,0
5396,128,128,126,127,127,129,128,127,0
5400,128,127,129,130,128,127,127,123,0
5441,126,127,127,127,125,131,131,129,0
5447,127,124,129,134,126,126,130,123,0
5450,129,131,125,121,128,128,127,128,0
5454,128,128,125,127,128,128,127,130,0
5457,126,128,125,120,129,130,127,124,0
5510,125,127,127,128,127,126,126,127,0
5522,130,130,128,126,127,129,129,126,0
5537,130,127,125,126,128,128,127,128,0
5579,127,128,128,131,128,127,126,125,0
5591,126,128,128,125,127,130,128,126,0
5601,128,129,128,124,128,126,128,129,0
5609,129,127,128,129,127,131,130,122,0
5614,127,125,129,137,126,128,129,126,0
5619,126,125,129,134,126,125,126,131,0
5623,128,129,128,120,128,128,128,130,0
5626,130,129,127,128,128,127,126,131,0
5629,128,129,126,124,128,127,125,131,0
5633,126,128,126,124,128,128,126,130,0
5636,128,128,127,127,127,132,129,120,0
5639,130,129,126,127,128,126,127,129,0
5643,128,128,128,127,128,125,126,126,0
5646,125,127,127,129,128,126,126,129,0
5649,128,126,129,127,129,123,128,133,0
5653,129,128,129,131,128,130,128,124,0
5656,128,129,129,137,128,126,126,128,0
5659,123,125,129,136,125,132,130,128,0
5663,127,125,128,136,129,131,129,128,0
5666,130,128,125,123,128,127,126,129,0
5669,128,126,127,122,128,128,127,125,0
5672,127,127,126,120,128,128,126,128,0
5675,127,128,126,125,128,127,128,130,0
5678,129,128,128,125,128,128,127,127,0
5680,129,129,129,140,126,124,127,128,0
5684,125,130,129,135,128,128,127,131,0
5687,125,126,129,138,129,129,127,130,0
5695,129,128,126,122,127,129,128,128,0
5698,128,128,127,130,127,122,126,127,0
5701,128,127,129,135,129,125,126,127,0
5708,127,125,130,136,126,126,128,131,0
5713,130,128,126,122,127,128,127,133,0
5717,128,128,126,136,129,129,127,130,0
5720,127,127,127,126,127,129,126,129,0
5723,127,129,128,126,127,130,129,129,0
5727,130,128,128,126,127,128,128,128,0
5730,127,127,128,127,127,127,126,125,0
5733,126,127,129,129,128,125,128,131,0
5735,127,127,128,138,126,129,133,121,0
5738,130,124,129,136,127,127,130,128,0
5741,128,127,127,123,128,128,126,130,0
5744,127,127,127,122,128,127,127,133,0
5747,127,127,127,125,128,127,126,130,0
5781,128,128,126,121,127,129,126,128,0
5789,128,129,126,122,128,130,127,123,0
5795,128,129,128,125,128,127,127,128,0
5851,127,127,126,123,127,127,128,125,0
5865,129,129,128,130,128,127,128,128,0
5883,128,128,128,130,128,127,131,123,0
5890,126,126,129,140,126,128,129,125,0
5897,126,125,129,136,126,128,130,125,0
5905,129,128,125,125,128,129,127,129,0
5910,129,130,127,127,128,124,126,126,0
5914,124,126,128,122,127,131,127,123,0
5917,126,128,128,125,127,131,128,121,0
5921,128,128,128,128,128,129,127,133,0
5924,129,128,128,128,128,126,127,129,0
5927,125,126,128,122,127,126,128,131,0
5933,126,129,129,131,128,126,127,132,0
5937,129,131,128,124,128,128,126,132,0
5940,128,127,128,127,127,130,127,129,0
5944,127,126,129,140,125,130,130,123,0
5947,127,124,129,137,125,127,130,122,0
5950,129,131,125,121,127,129,127,134,0
5954,129,127,126,122,128,128,126,128,0
5957,127,127,127,126,127,131,126,129,0
5960,127,127,126,130,126,123,125,127,0
5964,128,130,128,128,128,127,127,133,0
5967,129,128,126,123,128,127,128,132,0
5970,130,128,126,123,128,126,128,120,0
5973,127,127,128,128,129,127,126,120,0
5976,128,128,128,126,127,128,127,128,0
5980,129,127,128,128,128,125,128,129,0
5983,126,128,128,137,129,123,128,127,0
5987,127,126,127,123,128,132,128,126,0
5990,129,129,127,122,127,127,127,120,0
5993,129,128,127,124,127,129,128,117,0
5996,125,126,128,126,129,126,129,122,0
5999,127,125,130,136,125,129,131,124,0
6003,127,125,129,137,126,126,128,131,0
6006,130,129,127,120,128,129,127,131,0
6010,128,127,126,121,128,127,126,134,0
6014,127,128,128,126,128,129,127,127,0
6017,129,128,128,124,128,127,127,127,0
6020,127,128,126,127,128,128,126,128,0
6023,127,128,125,128,128,131,128,129,0
6026,126,128,127,130,128,125,127,129,0
6030,127,127,127,123,127,127,129,129,0
6033,130,128,128,133,128,125,127,133,0
6036,128,127,126,124,128,124,128,126,0
6042,125,128,127,128,128,124,128,117,0
6047,127,127,126,127,128,128,128,130,0
6050,130,128,127,127,128,126,127,130,0
6067,129,127,128,129,128,124,128,126,0
6095,126,127,129,130,127,128,131,128,0
6103,127,123,128,136,126,126,131,124,0
6109,129,130,126,121,128,132,127,134,0
6114,129,127,128,125,128,123,126,131,0
6119,126,127,126,121,128,131,126,130,0
6123,126,127,126,121,128,129,128,133,0
6127,130,128,128,123,127,128,127,122,0
6130,128,127,126,125,127,123,126,132,0
6134,126,128,128,129,128,126,125,124,0
6137,126,128,128,125,127,131,128,128,0
6140,131,127,127,125,127,127,129,118,0
6143,129,127,126,126,127,129,129,122,0
6147,126,123,129,139,125,127,130,121,0
6150,126,126,128,135,128,128,126,124,0
6154,127,128,128,123,128,127,127,129,0
6157,128,127,128,125,128,127,125,125,0
6161,127,127,126,121,128,130,127,131,0
6164,127,127,126,121,128,127,126,130,0
6166,129,129,128,127,128,126,126,129,0
6175,128,128,128,121,127,128,128,131,0
6179,128,126,129,139,128,128,128,130,0
6182,126,129,126,126,128,128,128,123,0
6186,128,127,127,127,128,127,128,124,0
6190,128,127,128,132,128,128,127,127,0
6193,127,127,129,127,129,127,129,121,0
6196,126,128,129,136,126,130,130,126,0
6201,127,126,128,138,126,130,127,136,0
6205,129,129,126,122,128,131,128,129,0
6211,127,127,127,124,128,129,128,132,0
6214,127,128,128,129,128,131,128,119,0
6218,128,128,127,123,127,130,128,131,0
6221,129,128,129,121,127,126,128,121,0
6224,126,127,128,128,128,128,127,122,0
6228,126,127,127,126,128,129,127,121,0
6231,128,130,129,136,126,131,131,125,0
6233,128,126,129,135,126,129,129,126,0
6236,127,126,129,132,127,126,129,125,0
6239,126,126,128,125,128,131,126,131,0
6245,129,127,127,120,127,131,128,129,0
6248,129,128,127,121,127,131,127,127,0
6250,127,127,128,123,127,131,125,130,0
6253,127,127,128,121,128,131,127,127,0
6256,127,129,127,123,127,128,128,133,0
6259,128,129,128,129,127,126,127,128,0
6262,129,127,126,129,128,129,128,131,0
6266,126,128,128,136,128,124,127,130,0
6269,127,128,127,123,127,125,128,132,0
6273,130,128,126,128,128,126,127,123,0
6276,128,128,126,126,128,129,130,122,0
6280,126,123,128,138,126,127,130,123,0
6284,126,126,128,123,129,132,129,127,0
6288,131,128,127,125,128,125,126,127,0
6291,129,127,128,127,128,127,126,129,0
6295,126,127,126,125,129,132,128,133,0
6299,127,128,127,128,127,130,127,134,0
6302,130,127,126,126,127,130,128,129,0
6308,128,127,128,125,127,131,129,124,0
6312,126,127,127,122,128,128,128,126,0
6316,126,128,127,122,127,132,128,131,0
6322,129,130,128,128,128,123,126,130,0
6326,128,127,128,129,127,127,127,128,0
6330,127,126,129,135,128,126,126,126,0
6333,127,128,128,131,127,126,127,130,0
6336,129,130,129,125,128,127,128,132,0
6340,128,128,128,121,128,125,128,126,0
6344,127,127,128,125,127,124,129,122,0
6347,127,124,128,136,125,128,131,122,0
6350,128,126,128,135,128,128,126,126,0
6353,130,127,127,124,128,128,127,127,0
6357,125,126,127,123,128,129,127,129,0
6359,127,127,126,123,128,128,127,132,0
6363,130,130,128,130,128,127,126,125,0
6367,128,128,128,124,128,125,129,133,0
6371,127,127,126,121,128,128,127,129,0
6374,126,130,127,127,128,127,127,128,0
6378,126,129,127,133,127,129,127,132,0
6381,131,128,128,139,126,126,130,121,0
6383,127,126,129,136,127,123,126,130,0
6386,127,129,126,121,127,131,128,130,0
6390,128,128,127,122,128,126,129,119,0
6393,129,128,126,124,127,125,129,124,0
6395,127,124,128,137,126,127,129,124,0
6398,126,125,129,132,128,129,124,132,0
6401,128,129,127,123,128,130,127,130,0
6404,129,128,126,121,128,129,126,123,0
6407,127,126,128,125,128,130,127,122,0
6412,126,128,126,126,128,130,128,129,0
6415,128,129,128,128,128,126,129,130,0
6419,130,128,127,134,127,129,128,131,0
6425,126,127,126,126,127,130,127,131,0
6428,128,128,128,129,128,124,127,126,0
6432,126,128,126,128,128,127,127,127,0
6435,128,127,128,127,127,129,128,126,0
6438,127,125,130,138,126,127,130,123,0
6441,125,125,129,125,128,125,125,131,0
6444,127,129,126,124,127,128,126,133,0
6447,129,127,128,129,128,126,127,125,0
6450,129,129,129,129,128,127,126,123,0
6453,126,126,127,123,127,128,127,127,0
6457,126,127,126,124,128,128,127,123,0
6460,129,127,126,126,127,128,128,126,0
6463,128,129,128,124,128,126,125,131,0
6466,126,128,128,137,128,129,127,126,0
6470,127,128,127,126,127,131,129,129,0
6478,129,127,128,132,128,128,127,125,0
6481,128,127,128,120,128,128,129,128,0
6485,127,123,130,135,125,131,129,124,0
6489,126,126,127,124,129,131,128,133,0
6492,129,129,128,123,129,126,127,134,0
6494,129,128,128,123,128,126,126,130,0
6498,126,127,125,120,128,131,127,128,0
6501,127,128,128,125,128,125,128,133,0
6504,127,129,127,128,127,131,129,131,0
6507,126,127,127,124,128,130,128,127,0
6510,125,128,127,128,128,123,127,124,0
6513,127,128,128,126,127,129,127,121,0
6515,129,127,127,126,128,128,126,129,0
6518,128,127,128,133,128,130,127,123,0
6524,126,127,129,133,126,127,130,126,0
6529,126,124,128,139,125,127,130,123,0
6532,129,129,128,124,128,127,128,126,0
6535,131,129,126,125,129,125,126,137,0
6539,127,126,127,124,128,131,127,125,0
6542,127,128,128,125,128,129,126,132,0
6545,130,128,128,123,128,126,126,124,0
6547,128,127,128,128,128,127,128,129,0
6550,126,127,127,125,128,124,127,128,0
6553,126,126,129,139,126,131,133,127,0
6556,127,129,128,127,128,129,127,134,0
6559,129,128,128,128,128,124,127,122,0
6563,127,128,128,128,128,124,128,119,0
6565,126,128,126,119,128,128,126,129,0
6569,129,129,128,126,127,124,127,131,0
6572,128,129,129,134,128,123,127,131,0
6577,126,127,128,124,127,128,130,123,0
6581,126,123,129,136,126,128,130,128,0
6584,128,127,128,122,128,125,126,131,0
6588,127,128,127,123,128,127,126,130,0
6591,125,127,128,127,128,125,126,129,0
6594,128,127,128,122,128,129,128,125,0
6598,130,127,126,126,127,131,129,132,0
6601,130,129,128,122,128,126,126,128,0
6604,128,128,128,126,129,124,126,129,0
6608,127,128,128,137,129,124,127,130,0
6611,127,127,129,135,128,129,128,133,0
6614,130,129,128,137,128,126,128,132,0
6617,127,128,128,135,128,126,126,126,0
6620,126,127,126,125,128,129,127,128,0
6623,128,128,129,138,127,130,128,121,0
6627,129,128,126,127,127,128,128,131,0
6632,127,129,129,139,124,130,131,124,0
6635,126,124,128,136,125,126,128,121,0
6640,128,129,125,123,129,132,127,131,0
6644,129,129,127,120,128,130,126,134,0
6649,126,128,126,123,128,126,127,133,0
6652,125,127,128,124,129,124,126,126,0
6655,128,129,128,127,127,131,128,127,0
6659,129,127,128,127,128,128,127,128,0
6662,128,127,125,123,127,131,127,128,0
6665,127,128,126,125,129,124,128,130,0
6669,126,128,127,132,126,128,129,126,0
6672,129,129,128,129,128,126,128,128,0
6675,128,128,128,133,128,128,128,123,0
6678,127,123,130,137,125,127,129,123,0
6681,125,126,129,125,128,128,127,129,0
6686,130,127,126,125,128,128,128,129,0
6691,130,126,128,130,127,124,128,127,0
6694,127,128,126,129,128,128,127,128,0
6699,126,130,128,130,128,126,127,126,0
6701,129,129,127,125,127,124,125,128,0
6704,127,129,126,128,128,129,127,127,0
6711,126,126,129,138,126,129,129,123,0
6715,127,129,128,128,128,128,127,122,0
6718,129,130,126,124,128,129,127,128,0
6722,128,128,127,122,129,126,127,128,0
6725,127,127,127,125,128,123,126,131,0
6729,126,128,127,124,127,128,129,125,0
6732,129,128,128,122,127,126,127,128,0
6735,128,125,129,138,125,132,130,129,0
6739,127,124,129,137,125,129,130,124,0
6744,126,126,125,117,128,128,126,133,0
6749,128,128,125,120,128,127,127,128,0
6755,128,127,126,128,128,126,126,127,0
6759,125,129,126,121,128,126,125,131,0
6763,125,127,128,129,127,128,128,126,0
6767,129,129,128,126,127,131,128,131,0
6771,130,128,126,123,128,128,127,126,0
6773,127,127,128,130,128,126,128,127,0
6779,124,127,129,127,128,128,128,118,0
6785,129,129,128,134,127,126,127,128,0
6789,130,128,127,129,129,128,129,125,0
6792,127,127,128,130,128,128,128,125,0
6795,126,125,129,140,126,126,130,122,0
6799,128,127,128,137,126,127,127,132,0
6802,129,127,128,121,127,131,126,131,0
6806,127,127,128,133,128,127,126,128,0
6812,126,127,128,126,128,130,127,128,0
6814,129,128,128,122,128,129,126,130,0
6817,129,128,126,123,128,130,127,125,0
6820,127,128,128,124,128,127,126,127,0
6823,126,127,126,123,129,124,127,128,0
6827,129,128,126,127,127,125,127,128,0
6831,129,128,127,130,128,126,130,123,0
6834,127,124,128,138,124,131,131,124,0
6837,126,125,129,136,126,126,130,124,0
6841,128,129,127,122,128,128,126,131,0
6844,128,127,127,125,127,126,126,125,0
6847,128,129,128,123,128,127,126,127,0
6851,126,127,126,131,126,125,126,127,0
6854,128,127,128,122,127,129,129,130,0
6858,129,129,127,121,127,129,128,131,0
6863,130,129,126,125,128,127,126,120,0
6869,127,127,128,122,127,129,128,130,0
6873,126,129,127,124,127,129,127,129,0
6876,129,129,128,125,128,126,129,120,0
6880,127,128,129,126,128,125,126,129,0
6883,126,128,128,122,127,130,128,129,0
6886,127,128,127,127,127,126,127,130,0
6889,131,127,128,133,126,128,129,123,0
6892,128,126,130,135,126,130,130,126,0
6895,125,125,128,135,126,126,131,130,0
6898,127,130,125,120,128,127,126,129,0
6902,129,128,125,122,127,129,127,131,0
6906,128,128,128,124,128,128,127,130,0
6910,127,129,127,123,128,124,126,127,0
6914,126,128,128,126,128,129,128,130,0
6918,129,129,128,127,128,126,126,129,0
6921,128,128,128,134,127,128,127,129,0
6924,127,128,127,127,128,126,130,123,0
6927,127,126,129,137,126,127,127,129,0
6930,129,128,128,121,128,127,127,130,0
6933,129,127,126,125,128,123,126,128,0
6937,125,127,128,124,127,128,126,130,0
6940,126,128,127,121,128,127,127,124,0
6943,130,129,128,123,128,129,127,125,0
6945,129,128,126,129,128,128,127,122,0
6950,127,127,129,135,124,131,130,127,0
6954,127,124,129,137,126,127,130,126,0
6957,129,129,127,122,128,132,127,134,0
6962,127,127,127,128,128,127,126,132,0
6966,127,127,126,123,128,128,127,131,0
6969,125,128,126,126,128,127,127,129,0
6974,129,127,128,127,128,129,127,129,0
6980,128,129,129,139,127,128,129,122,0
6984,126,126,129,136,126,127,128,124,0
6987,124,130,127,123,129,125,127,130,0
6991,129,128,127,126,127,127,127,128,0
6993,128,127,128,124,128,130,127,126,0
6996,127,127,128,126,127,130,128,131,0
7000,125,128,128,128,130,125,128,130,0
7003,129,129,129,125,127,128,127,129,0
7006,128,127,126,127,128,128,129,126,0
7010,126,126,129,135,128,124,129,121,0
7013,126,126,128,123,128,128,126,132,0
7016,130,128,126,123,127,129,127,131,0
7019,129,130,129,136,129,124,126,128,0
7022,125,129,128,126,129,124,126,125,0
7025,125,129,128,123,128,129,127,130,0
7028,129,128,128,121,127,128,128,125,0
7030,128,128,127,131,128,125,128,129,0
7035,127,127,126,131,128,124,127,120,0
7038,124,128,128,128,128,129,128,124,0
7042,128,128,126,125,128,130,128,129,0
7044,129,128,128,131,128,128,126,130,0
7050,126,126,129,139,124,132,130,129,0
7054,126,123,129,136,126,127,129,124,0
7058,130,128,127,124,129,128,128,130,0
7062,129,128,125,122,128,125,127,130,0
7065,128,128,125,121,129,127,127,130,0
7070,125,127,128,122,128,128,127,127,0
7073,127,128,127,133,128,129,127,133,0
7086,129,129,128,126,128,128,128,130,0
7091,127,128,126,134,127,126,131,127,0
7097,127,124,129,138,126,127,129,130,0
7100,126,129,126,123,128,126,127,128,0
7104,130,128,128,124,127,131,127,130,0
7107,127,128,126,127,128,126,127,134,0
7110,124,130,126,121,128,125,128,129,0
7114,129,127,128,122,128,126,128,129,0
7117,130,129,128,127,127,127,128,129,0
7120,127,127,126,121,128,131,127,129,0
7123,127,129,129,131,129,129,127,129,0
7127,128,129,129,129,128,127,128,126,0
7130,130,128,128,137,128,125,126,123,0
7132,127,129,127,128,129,130,130,122,0
7135,124,124,129,136,125,128,129,127,0
7138,128,126,126,120,128,129,127,125,0
7141,130,128,128,129,128,126,127,122,0
7144,128,128,128,127,129,121,126,133,0
7146,127,130,128,127,129,125,127,133,0
7152,124,130,129,126,128,130,128,127,0
7155,128,127,129,126,127,129,128,121,0
7159,128,129,127,124,128,127,125,130,0
7162,126,127,128,128,127,128,127,120,0
7165,127,129,128,125,127,130,129,127,0
7169,129,129,127,126,127,130,127,130,0
7172,127,128,128,136,126,127,130,126,0
7175,126,124,129,135,126,129,129,121,0
7179,127,127,127,124,129,125,125,130,0
7182,130,128,127,125,128,131,129,119,0
7185,129,127,127,124,128,129,126,133,0
7190,126,126,127,121,128,128,126,128,0
7194,127,127,128,127,127,130,128,130,0
7198,130,130,127,123,127,130,127,134,0
7203,128,130,128,127,128,123,126,132,0
7206,126,128,128,130,128,128,127,127,0
7209,126,129,129,122,127,129,128,130,0
7212,131,127,128,122,127,127,127,123,0
7215,129,127,126,126,127,125,126,124,0
7218,127,128,129,136,126,132,130,128,0
7220,126,123,129,138,125,126,129,126,0
7224,129,129,127,123,128,132,127,134,0
7227,129,129,128,124,129,126,127,130,0
7230,128,129,126,127,128,128,127,130,0
7233,126,128,127,137,127,127,128,127,0
7237,128,128,126,129,127,128,128,130,0
7240,128,129,128,123,128,124,128,129,0
7243,127,128,126,137,128,128,127,120,0
7250,125,128,129,138,128,125,126,133,0
7253,128,128,127,129,126,129,128,122,0
7257,128,127,126,126,127,124,126,129,0
7260,128,127,128,127,128,125,127,127,0
7263,127,127,128,133,125,129,131,126,0
7266,129,124,129,141,126,127,130,123,0
7269,128,126,126,121,128,128,125,131,0
7272,126,128,128,123,128,128,126,127,0
7276,127,127,128,121,128,128,126,129,0
7279,129,128,125,121,127,131,127,131,0
7282,130,129,129,124,128,128,129,128,0
7285,130,127,126,125,128,130,127,125,0
7289,126,127,127,128,128,131,128,129,0
7292,128,128,128,128,127,128,129,132,0
7296,129,128,128,122,128,128,128,129,0
7300,127,128,127,130,128,127,127,128,0
7303,126,126,128,138,128,129,128,126,0
7307,127,126,129,129,128,125,127,128,0
7313,129,127,128,123,128,129,127,130,0
7318,127,126,129,136,126,131,130,126,0
7321,126,123,128,135,126,127,129,121,0
7324,126,129,128,124,128,128,126,126,0
7326,130,129,125,125,127,127,129,130,0
7330,127,127,127,128,127,127,126,130,0
7333,126,128,126,122,128,127,126,125,0
7336,127,128,126,123,127,128,126,129,0
7339,128,128,128,122,127,130,126,136,0
7342,127,128,128,125,127,129,127,129,0
7345,128,128,129,135,128,131,129,116,0
7350,127,129,127,126,128,126,128,130,0
7352,130,129,128,131,127,130,127,128,0
7355,127,128,128,130,128,126,126,122,0
7363,126,126,129,126,128,127,128,128,0
7360,126,128,129,138,127,126,129,121,0
7366,128,128,128,125,127,129,128,128,0
7371,128,128,128,127,128,125,126,129,0
7375,126,127,126,124,128,127,126,128,0
7382,126,127,126,135,127,130,128,134,0
7386,129,128,128,125,127,124,129,122,0
7391,128,127,126,126,127,129,127,130,0
7393,127,128,129,130,128,127,126,128,0
7396,126,124,129,136,125,128,132,121,0
7401,129,124,128,131,128,131,127,134,0
7403,129,129,127,126,128,124,127,133,0
7407,127,128,127,132,128,129,128,130,0
7411,125,128,128,124,127,129,127,130,0
7414,129,128,126,124,127,131,128,134,0
7418,130,128,127,124,129,128,127,125,0
7425,127,127,128,141,125,128,130,123,0
7429,126,125,129,135,128,128,127,130,0
7435,129,131,126,124,128,127,126,131,0
7441,128,129,128,127,128,131,128,132,0
7446,128,127,126,122,127,130,127,125,0
7451,126,128,128,125,128,125,129,132,0
7454,129,131,127,132,127,125,129,121,0
7457,129,127,128,123,127,126,127,120,0
7461,127,127,129,128,128,128,128,128,0
7464,126,127,128,129,128,126,128,134,0
7467,129,130,128,125,128,124,127,129,0
7471,129,130,128,127,128,125,128,129,0
7474,127,126,130,137,124,130,131,128,0
7477,126,125,129,136,127,130,127,134,0
7480,127,129,129,121,128,127,128,128,0
7483,126,129,126,123,128,124,127,125,0
7487,126,127,129,128,129,126,128,131,0
7490,126,127,128,122,128,129,127,130,0
7493,128,129,127,122,128,128,128,132,0
7495,129,130,128,120,128,125,128,129,0
7499,127,127,127,122,127,131,127,130,0
7504,127,128,126,124,128,127,127,127,0
7507,128,127,126,124,128,128,127,130,0
7512,129,128,129,129,128,126,127,131,0
7516,127,125,130,137,125,131,130,122,0
7519,126,124,129,136,125,126,130,122,0
7524,125,130,127,119,128,127,127,130,0
7528,128,128,128,124,128,126,126,124,0
7531,128,128,128,123,128,129,126,130,0
7534,127,127,128,124,127,129,128,124,0
7537,128,129,127,126,127,126,128,131,0
7541,130,129,128,123,128,126,126,128,0
7546,127,127,126,124,127,129,128,123,0
7552,125,127,126,126,127,131,129,116,0
7556,128,127,126,125,127,131,129,123,0
7560,130,127,127,127,127,130,129,130,0
7564,128,128,127,129,128,124,128,121,0
7568,127,127,129,128,128,125,127,124,0
7571,127,129,128,135,126,130,128,128,0
7574,129,127,128,128,127,129,127,120,0
7577,126,126,129,135,127,124,129,126,0
7580,126,123,129,133,125,129,129,123,0
7584,127,126,128,130,130,130,127,130,0
7587,129,130,127,121,128,127,126,132,0
7590,126,127,127,121,127,130,128,127,0
7593,126,126,126,122,128,128,127,132,0
7596,128,128,126,126,129,125,127,130,0
7599,129,127,126,126,127,129,126,130,0
7602,128,128,127,123,128,127,126,126,0
7605,125,129,128,125,128,127,127,130,0
7608,127,129,128,126,128,127,127,123,0
7611,129,130,127,128,128,124,126,121,0
7614,129,126,128,133,128,124,128,127,0
7618,127,128,128,136,126,125,130,121,0
7621,127,124,128,138,125,125,128,135,0
7624,128,130,129,124,127,129,127,131,0
7627,127,126,127,128,128,128,127,128,0
7630,127,126,126,126,128,128,125,125,0
7633,127,128,126,123,128,128,126,127,0
7636,129,128,128,127,128,127,127,120,0
7640,128,127,127,127,127,130,128,130,0
7647,126,123,129,136,126,127,130,123,0
7650,125,125,129,139,127,129,128,131,0
7655,130,130,126,122,128,125,126,128,0
7660,129,127,128,123,129,130,127,129,0
7664,126,128,126,131,127,126,127,127,0
7667,124,128,126,124,128,126,126,128,0
7670,129,129,128,127,127,128,129,128,0
7673,129,128,128,130,127,123,128,131,0
7675,127,128,127,135,128,127,127,133,0
7679,125,128,128,125,128,128,127,130,0
7687,129,127,126,123,127,130,127,132,0
7691,128,129,129,126,128,124,127,130,0
7695,126,130,129,133,128,130,128,126,0
7699,128,128,127,126,128,126,127,124,0
7702,130,129,128,130,128,127,128,130,0
7704,129,129,128,127,128,126,127,125,0
7708,126,127,128,132,129,128,131,128,0
7711,127,123,128,136,125,128,129,122,0
7713,129,129,127,125,128,128,127,125,0
7716,129,127,128,121,128,129,128,129,0
7720,127,128,126,135,128,126,126,127,0
7723,126,127,128,121,129,127,126,128,0
7726,128,128,126,129,127,131,128,129,0
7729,129,128,127,123,128,127,128,122,0
7732,127,128,126,125,128,127,127,128,0
7734,124,126,129,140,127,128,131,125,0
7737,127,127,129,126,128,130,126,131,0
7740,130,130,128,125,128,126,126,131,0
7743,127,127,126,124,127,129,127,127,0
7746,127,128,128,128,128,127,127,126,0
7749,127,129,127,124,128,128,128,134,0
7752,130,128,127,130,128,125,127,121,0
7758,127,127,127,126,128,127,127,127,0
7762,127,124,128,136,125,129,131,123,0
7765,127,126,129,127,128,127,126,129,0
7767,130,130,125,122,127,129,126,131,0
7770,127,127,126,123,129,131,127,133,0
7773,127,128,126,125,129,124,126,131,0
7776,128,128,128,122,128,124,127,124,0
7780,129,128,129,129,129,127,128,126,0
7783,128,127,128,125,128,128,126,125,0
7787,125,127,126,126,127,128,127,128,0
7791,125,128,128,129,127,129,128,128,0
7794,129,128,128,123,127,130,128,128,0
7797,128,127,126,126,127,125,127,127,0
7801,125,123,129,137,124,128,130,124,0
7804,127,126,129,134,128,130,127,130,0
7808,129,127,125,129,127,131,129,125,0
7814,127,127,127,123,128,130,127,133,0
7817,124,129,127,123,128,125,127,131,0
7821,128,129,126,121,128,132,127,128,0
7824,130,128,126,123,127,128,128,126,0
7827,128,129,128,126,128,129,128,121,0
7832,126,125,129,136,127,126,129,119,0
7835,128,125,129,133,128,127,127,131,0
7838,130,130,127,123,128,125,127,130,0
7840,128,127,125,130,127,128,127,125,0
7844,127,127,128,126,128,129,126,128,0
7846,125,128,127,124,129,124,127,134,0
7850,130,127,128,121,128,128,126,132,0
7853,129,128,127,122,128,125,127,131,0
7856,126,128,128,125,128,128,127,119,0
7860,126,128,126,127,127,129,126,127,0
7865,129,129,127,131,127,128,127,124,0
7872,128,128,128,141,126,128,131,127,0
7878,127,124,129,137,125,127,129,122,0
7880,125,127,128,126,128,128,127,134,0
7884,129,130,126,122,128,126,126,130,0
7887,130,127,128,123,127,130,128,124,0
7891,127,127,126,120,128,128,125,129,0
7894,126,127,125,121,127,126,127,132,0
7897,129,128,128,124,128,127,126,128,0
7900,129,127,127,131,127,126,128,120,0
7903,127,127,126,125,129,124,125,124,0
7906,123,126,129,138,126,126,128,134,0
7909,129,130,127,127,128,128,127,128,0
7912,130,127,126,125,128,127,127,127,0
7916,126,127,129,139,127,126,131,127,0
7920,127,123,130,137,126,126,127,131,0
7923,129,129,128,124,128,129,127,133,0
7926,129,128,126,121,128,127,126,133,0
7930,127,128,128,124,128,127,127,133,0
7933,125,129,128,123,128,126,126,131,0
7935,129,129,128,130,127,128,127,129,0
7940,128,127,128,129,128,127,129,130,0
7943,127,128,128,137,127,127,127,128,0
7947,126,128,128,133,128,126,126,131,0
7950,127,130,127,122,128,124,126,129,0
7953,129,130,127,131,128,127,128,128,0
7957,128,128,128,126,128,128,127,124,0
7960,126,127,128,135,129,128,127,127,0
7963,126,127,126,127,127,130,127,132,0
7966,129,128,128,123,127,129,129,128,0
7971,128,127,129,141,125,132,132,128,0
7974,126,123,129,138,126,129,129,120,0
7979,125,128,127,126,128,128,127,127,0
7988,129,128,127,127,127,130,128,133,0
7993,128,129,128,124,126,131,127,133,0
7996,128,126,128,127,128,131,129,130,0
8000,128,128,127,124,128,126,127,126,0
8003,128,128,126,124,128,125,127,126,0
8006,128,127,126,124,128,129,127,128,0
8011,127,127,127,127,128,128,127,126,0
8014,129,128,129,127,127,130,127,130,0
8018,132,128,128,124,128,129,126,129,0
8021,126,127,129,137,125,131,130,126,0
8024,125,125,129,134,127,126,130,124,0
8027,125,129,127,120,128,132,127,132,0
8030,131,128,126,122,128,128,127,126,0
8034,127,128,128,126,128,130,128,121,0
8037,127,127,125,121,127,130,126,127,0
8040,126,129,128,120,127,131,129,128,0
8044,130,129,127,130,129,127,127,127,0
8088,126,127,128,122,128,126,128,122,0
8066,129,127,126,124,128,130,127,130,0
8104,126,128,128,127,128,127,127,128,0
8121,129,130,126,126,128,130,129,124,0
8126,128,128,128,127,128,124,129,129,0
8145,126,129,129,138,126,127,131,121,0
8163,126,124,129,139,127,126,129,132,0
8169,130,128,128,123,127,127,127,127,0
8173,130,128,128,126,127,131,128,133,0
8178,127,127,126,123,128,129,126,127,0
8182,125,127,126,120,127,131,127,134,0
8186,128,130,128,125,127,128,127,135,0
8191,129,128,126,129,128,127,127,126,0
8197,126,126,127,123,128,128,128,124,0
8200,126,127,126,128,128,127,127,128,0
8203,130,128,129,128,127,124,127,125,0
8207,129,126,129,139,126,129,130,123,0
8216,126,122,130,135,125,127,129,123,0
8223,126,125,128,137,126,127,127,131,0
8229,129,128,125,120,128,131,127,136,0
8234,129,127,125,121,128,125,125,129,0
8238,127,127,125,122,128,130,128,130,0
8242,127,128,126,123,128,130,127,132,0
8248,127,130,128,127,127,127,127,130,0
8251,128,126,128,127,128,127,127,129,0
8256,127,127,126,128,128,127,128,126,0
8259,127,128,128,135,129,126,126,128,0
8262,128,130,128,128,127,127,127,126,0
8265,127,129,128,128,128,126,125,131,0
8269,128,126,126,126,128,130,128,123,0
8272,125,127,127,122,128,125,127,130,0
8275,127,126,129,140,126,130,129,132,0
8278,129,129,128,122,127,127,127,129,0
8282,127,126,126,126,129,124,128,121,0
8289,125,127,129,136,127,127,130,123,0
8292,128,126,129,136,125,129,132,127,0
8296,130,128,127,119,127,132,127,131,0
8299,128,128,128,118,127,128,125,127,0
8302,125,131,126,121,128,127,126,129,0
8305,127,128,128,122,128,126,126,125,0
8310,130,129,127,126,128,128,127,127,0
8313,127,126,129,131,128,123,129,120,0
8321,126,126,129,130,128,128,127,130,0
8316,126,125,130,141,125,128,131,122,0
8326,129,128,128,126,128,126,128,133,0
8330,129,129,128,126,128,126,126,133,0
8333,127,128,128,125,128,130,127,134,0
8336,127,129,126,123,128,128,127,132,0
8339,129,128,129,129,128,126,128,128,0
8343,128,127,128,129,128,126,127,126,0
8346,127,129,129,138,127,127,128,121,0
8349,126,128,129,128,127,131,130,126,0
8352,131,127,127,125,127,129,129,126,0
8355,129,129,128,129,127,128,126,129,0
8359,125,127,129,131,128,127,126,130,0
8362,128,129,128,126,127,128,127,131,0
8365,129,129,128,134,127,129,128,131,0
8368,128,127,128,130,128,128,132,127,0
8372,126,123,129,138,124,126,129,123,0
8375,126,125,129,138,126,126,128,132,0
8380,129,128,128,123,129,129,126,131,0
8383,127,128,128,124,127,131,127,128,0
8386,127,128,126,121,128,129,126,130,0
8389,125,128,126,121,127,128,127,131,0
8393,129,131,128,126,128,127,127,131,0
8396,130,128,126,123,127,129,128,123,0
8399,125,127,129,125,128,129,126,128,0
8402,123,128,127,123,128,131,127,133,0
8405,128,128,127,126,127,128,129,124,0
8409,129,127,128,130,128,129,128,122,0
8413,128,127,127,125,129,126,127,123,0
8416,126,127,128,132,128,124,126,127,0
8419,128,127,128,127,127,129,128,125,0
8423,130,127,127,130,128,125,130,128,0
8430,127,123,129,139,125,130,129,123,0
8437,125,124,129,140,126,126,127,129,0
8442,128,130,127,124,128,131,128,130,0
8445,129,127,128,126,130,130,128,130,0
8448,128,127,126,130,127,127,128,133,0
8450,125,130,128,126,128,125,127,125,0
8453,128,130,126,125,127,129,128,129,0
8456,129,128,128,127,128,127,128,121,0
8461,128,129,128,125,128,126,125,124,0
8466,126,127,126,120,128,129,127,132,0
8470,127,128,127,129,127,127,126,131,0
8473,128,128,128,139,127,132,127,126,0
8476,127,127,127,126,128,126,129,125,0
8479,126,127,129,132,128,125,127,127,0
8483,128,127,128,127,126,130,129,129,0
8486,129,128,129,139,127,127,130,121,0
8489,127,126,129,138,124,131,131,126,0
8492,126,123,127,133,127,131,128,126,0
8495,129,129,127,122,128,127,125,129,0
8499,130,129,125,122,129,126,127,131,0
8502,128,127,127,124,129,126,128,131,0
8505,127,128,126,124,128,125,127,125,0
8508,127,130,128,127,128,128,128,131,0
8511,129,129,129,129,128,129,127,134,0
8514,128,128,128,125,128,128,126,133,0
8518,125,129,128,135,126,128,131,121,0
8521,128,129,128,132,127,131,129,126,0
8528,129,128,128,121,128,129,126,133,0
8531,128,127,128,122,128,132,129,123,0
8534,125,124,129,135,126,127,130,124,0
8538,127,127,126,122,128,128,127,128,0
8543,133,130,127,120,127,130,126,133,0
8548,128,129,128,127,128,123,126,129,0
8551,125,128,126,124,129,125,126,132,0
8554,125,127,126,122,128,127,127,130,0
8558,132,131,128,126,127,128,127,130,0
8561,128,128,127,124,127,129,128,129,0
8564,126,128,128,136,127,128,129,124,0
8568,126,126,129,131,127,128,127,135,0
8570,130,129,128,124,128,124,127,131,0
8575,129,128,128,123,128,122,130,123,0
8578,126,127,127,138,128,125,127,122,0
8581,126,127,127,127,127,129,128,128,0
8586,130,129,129,129,127,123,126,124,0
8589,129,129,127,127,128,125,126,124,0
8593,126,127,128,127,128,128,126,123,0
8596,125,128,127,127,127,129,127,129,0
8599,128,128,128,127,128,128,128,127,0
8603,129,129,129,139,124,130,131,119,0
8606,129,123,129,139,126,128,130,122,0
8609,125,127,127,126,128,130,129,123,0
8612,129,129,126,123,128,130,127,130,0
8615,128,126,127,125,128,129,128,131,0
8618,126,127,127,127,128,127,127,131,0
8621,124,129,129,126,128,129,126,132,0
8624,131,128,128,130,129,124,127,129,0
8627,129,129,129,127,127,124,128,133,0
8631,126,129,128,123,128,127,127,131,0
8634,126,128,128,125,128,123,127,130,0
8636,129,130,129,133,127,125,128,132,0
8641,129,128,128,131,127,128,130,121,0
8649,127,124,128,136,126,129,130,122,0
8652,125,124,129,134,126,124,125,131,0
8655,127,129,128,121,128,131,128,133,0
8658,130,129,127,122,128,126,128,125,0
8660,127,127,125,123,128,129,127,119,0
8663,124,128,128,123,128,126,127,124,0
8666,130,128,127,125,128,125,128,132,0
8669,129,129,127,131,127,127,128,128,0
8671,127,127,126,124,128,131,128,132,0
8674,126,130,129,129,128,123,128,131,0
8677,128,131,128,122,128,129,127,132,0
8680,129,129,128,128,128,125,127,129,0
8685,127,127,128,122,127,127,126,129,0
8688,126,128,127,126,128,130,128,122,0
8691,128,128,128,131,127,132,128,126,0
8696,128,129,127,126,128,126,126,129,0
8699,127,128,129,136,126,131,131,125,0
8703,126,123,129,137,126,127,130,123,0
8706,128,126,127,126,128,127,128,130,0
8709,130,129,128,122,128,129,127,123,0
8712,126,129,127,124,128,128,126,128,0
8717,126,128,126,122,128,130,127,132,0
8722,126,129,128,123,127,131,128,127,0
8725,129,129,127,124,128,127,127,130,0
8728,130,127,127,130,128,131,127,131,0
8732,126,128,128,136,129,124,128,133,0
8735,128,128,126,124,127,129,128,124,0
8738,130,127,128,126,127,126,129,120,0
8741,128,127,127,125,127,128,127,125,0
8747,127,128,128,126,128,125,127,121,0
8752,126,128,126,122,128,128,127,131,0
8756,129,128,127,127,127,126,128,129,0
8760,126,128,126,136,129,126,132,121,0
8765,129,121,128,138,125,130,130,122,0
8770,126,125,128,124,128,129,128,130,0
8773,130,129,125,122,128,126,127,121,0
8777,130,128,128,128,128,128,128,133,0
8781,126,127,128,125,128,131,127,120,0
8784,127,127,126,122,127,128,128,131,0
8787,127,129,127,127,128,129,127,133,0
8790,129,130,128,132,128,130,127,132,0
8793,124,128,127,123,128,126,126,128,0
8797,125,128,127,125,127,130,127,128,0
8800,128,129,128,125,128,128,129,129,0
8804,130,127,127,131,128,126,128,128,0
8807,127,128,128,133,128,126,129,120,0
8810,126,123,129,140,125,128,131,122,0
8814,128,129,128,124,127,131,125,130,0
8817,130,127,126,122,128,131,126,128,0
8820,126,128,126,123,127,131,126,127,0
8823,126,127,126,123,128,128,127,125,0
8826,128,128,128,126,127,128,128,126,0
8829,127,128,127,123,128,127,127,132,0
8832,127,128,126,130,129,125,128,119,0
8835,124,126,129,137,126,129,130,123,0
8837,130,129,126,123,128,128,126,127,0
8840,128,130,126,122,128,127,126,136,0
8843,126,127,128,124,127,130,128,126,0
8846,125,125,129,139,127,126,128,129,0
8849,129,130,127,129,127,126,127,134,0
8853,129,128,126,127,127,126,128,126,0
8855,125,127,127,125,128,128,127,126,0
8859,128,127,129,132,128,127,127,128,0
8864,129,130,127,131,127,127,127,129,0
8868,129,127,128,127,127,128,128,123,0
8872,126,126,128,134,125,130,131,127,0
8874,126,124,130,137,125,128,128,128,0
8877,128,129,127,127,127,130,128,129,0
8880,129,128,127,125,128,127,127,131,0
8883,127,129,126,121,128,125,127,128,0
8894,127,128,126,129,128,126,126,130,0
8897,129,129,128,129,128,124,127,130,0
8900,129,126,128,126,128,127,127,131,0
8903,127,127,129,136,127,127,128,122,0
8907,125,126,128,135,127,130,129,129,0
8910,126,130,125,119,128,130,127,132,0
8914,129,130,128,120,128,130,126,128,0
8917,131,127,126,121,129,125,126,127,0
8920,124,127,128,127,128,127,127,121,0
8923,126,128,128,124,128,128,126,123,0
8926,131,127,126,130,128,125,127,126,0
8930,125,127,126,126,128,129,127,125,0
8934,124,127,128,130,128,126,128,129,0
8937,128,129,126,125,127,130,128,120,0
8941,130,129,127,129,127,125,127,130,0
8944,127,127,127,126,128,124,127,132,0
8948,127,127,129,128,128,126,126,131,0
8950,127,126,130,139,125,130,131,121,0
8953,128,126,129,140,126,128,128,130,0
8956,128,126,128,128,130,125,125,126,0
8960,126,128,128,126,128,130,126,127,0
8963,127,128,128,122,127,131,128,131,0
8966,129,128,127,123,127,131,128,131,0
8969,129,129,128,128,128,130,127,132,0
8974,126,128,127,123,129,125,126,126,0
8977,126,127,128,128,127,128,128,129,0
8981,129,128,127,132,128,128,128,129,0
8985,129,128,128,133,128,129,128,131,0
8990,124,128,129,139,126,126,130,125,0
8992,126,126,129,134,127,130,126,131,0
8995,129,128,128,123,127,127,125,130,0
8998,129,128,127,126,128,128,126,129,0
9002,127,126,128,135,128,127,126,125,0
9004,126,126,128,125,129,126,127,133,0
9007,130,128,128,123,127,126,127,126,0
9010,126,127,128,129,128,127,128,121,0
9013,126,125,129,142,125,128,129,124,0
9017,126,124,130,135,127,132,126,132,0
9020,130,130,127,119,128,126,126,135,0
9023,126,129,125,120,128,131,126,132,0
9025,124,128,126,118,129,126,126,124,0
9029,130,126,126,125,129,126,127,133,0
9031,130,128,126,122,127,131,127,129,0
9034,129,128,128,130,128,126,127,129,0
9037,127,127,129,128,127,130,128,125,0
9040,123,128,129,127,127,130,129,129,0
9043,130,129,128,133,126,130,127,133,0
9046,129,128,126,121,127,130,128,120,0
9049,126,127,128,127,128,126,126,125,0
9052,126,128,127,128,128,124,127,129,0
9055,129,130,127,131,128,126,129,130,0
9059,128,128,128,128,127,129,127,129,0
9062,127,128,129,137,129,126,130,128,0
9066,125,124,129,138,124,127,130,124,0
9069,128,127,128,125,127,127,127,132,0
9072,128,128,128,128,128,125,125,130,0
9077,127,127,127,126,128,128,126,126,0
9082,129,129,128,121,127,130,128,128,0
9087,128,129,128,127,128,124,127,128,0
9091,128,127,129,124,127,126,127,125,0
9093,126,128,128,124,128,126,126,129,0
9096,126,127,126,123,128,127,129,131,0
9100,127,128,127,128,128,127,127,129,0
9103,129,127,128,128,127,129,128,128,0
9106,127,126,129,133,127,126,130,118,0
9109,126,125,128,138,125,129,130,123,0
9112,128,127,126,121,128,131,127,134,0
9115,130,127,128,123,128,127,127,129,0
9120,128,127,125,121,128,128,127,128,0
9123,125,129,128,124,129,125,128,130,0
9125,128,130,126,122,127,128,127,133,0
9128,130,128,127,124,127,127,126,131,0
9132,126,127,128,122,128,125,126,126,0
9135,124,128,128,125,127,127,127,119,0
9140,130,127,125,129,128,125,128,123,0
9143,130,127,127,127,128,129,130,123,0
9146,127,125,129,136,126,129,129,124,0
9149,126,125,129,133,130,131,127,135,0
9152,128,127,125,124,128,129,129,133,0
9154,129,128,126,123,128,126,128,134,0
9157,129,128,126,128,128,124,128,121,0
9160,127,127,127,125,128,128,127,125,0
9165,126,128,128,126,128,128,127,130,0
9168,129,129,127,126,126,125,128,126,0
9171,128,128,129,136,128,127,126,132,0
9175,125,127,128,124,129,125,125,124,0
9179,126,128,128,136,128,125,127,129,0
9188,128,126,130,137,125,131,130,126,0
9184,129,128,127,127,127,129,127,130,0
9194,127,123,129,138,125,128,129,124,0
9200,126,126,129,134,128,133,127,134,0
9203,129,129,127,122,128,126,126,131,0
9206,128,128,128,129,130,126,126,126,0
9209,126,127,128,122,127,131,125,127,0
9212,128,128,128,127,128,131,128,124,0
9216,129,129,128,124,128,126,126,129,0
9220,129,128,126,123,128,127,127,122,0
9224,126,125,128,128,128,126,127,128,0
9227,126,127,128,128,127,129,127,128,0
9230,128,130,126,125,127,128,128,121,0
9233,128,129,129,129,128,126,128,128,0
9235,126,128,128,130,128,128,128,120,0
9238,127,128,128,122,128,126,126,131,0
9241,129,127,128,126,127,128,128,118,0
9244,128,127,127,127,127,128,126,126,0
9247,124,126,127,121,128,126,126,131,0
9255,130,127,126,128,127,126,128,123,0
9258,129,127,128,142,125,130,131,125,0
9251,126,127,128,131,128,126,128,126,0
9261,127,124,129,135,126,126,129,123,0
9264,127,126,128,125,129,125,126,131,0
9269,129,128,127,125,128,129,127,131,0
9272,127,127,127,128,129,127,126,124,0
9275,127,127,128,127,128,130,127,132,0
9281,126,128,126,127,128,128,127,136,0
9283,129,129,127,125,128,128,128,125,0
9286,130,127,129,123,128,128,127,127,0
9290,127,125,128,125,128,131,127,123,0
9295,126,127,129,133,128,129,127,130,0
9301,128,129,128,125,128,128,129,118,0
9304,129,129,128,125,128,127,126,128,0
9307,128,128,129,124,129,127,128,126,0
9310,126,128,129,139,125,129,130,128,0
9313,128,126,129,137,126,128,127,136,0
9337,129,130,129,126,128,128,129,133,0
9341,129,126,128,121,127,131,128,132,0
9346,127,127,126,125,128,127,127,125,0
9411,128,127,128,130,127,129,127,131,0
9464,129,129,129,136,127,128,128,130,0
9578,127,129,126,124,128,129,128,127,0
9557,128,127,128,131,126,129,129,120,0
9567,126,125,130,136,127,127,130,126,0
9582,130,130,126,121,128,128,126,130,0
9586,128,128,127,126,129,125,128,132,0
9612,127,128,127,124,129,123,125,128,0
9616,126,131,128,128,128,126,127,127,0
9646,129,129,128,132,127,128,128,128,0
9659,129,128,128,127,128,126,127,126,0
9668,125,126,128,122,128,123,127,127,0
9673,126,127,128,126,127,124,129,128,0
9677,129,129,128,130,127,126,128,119,0
9681,127,127,129,143,125,128,130,126,0
9684,125,124,130,139,125,126,130,126,0
9687,125,126,129,139,126,125,128,127,0
9691,130,128,127,128,128,127,126,130,0
9695,128,127,128,132,128,129,127,129,0
9699,126,129,129,137,129,126,127,129,0
9704,126,128,127,126,128,125,126,127,0
9709,129,128,127,127,127,127,127,124,0
9712,127,128,127,123,128,130,126,137,0
9716,125,129,126,121,128,132,127,129,0
9719,127,128,128,119,127,128,127,129,0
9722,130,130,128,122,128,127,126,129,0
9725,128,128,129,124,128,123,128,128,0
9729,127,128,127,132,127,127,126,130,0
9732,127,129,128,123,128,123,127,130,0
9735,125,129,128,132,128,124,127,126,0
9739,126,126,129,144,126,126,131,121,0
9742,127,126,129,140,127,126,130,122,0
9746,127,126,129,126,128,128,127,132,0
9749,128,128,126,123,128,127,127,125,0
9752,129,127,128,123,128,127,127,130,0
9756,126,126,127,122,127,124,127,133,0
9759,127,128,126,125,128,125,127,133,0
9762,130,128,127,121,127,129,128,133,0
9766,128,127,126,120,127,129,128,133,0
9769,128,128,126,124,128,124,128,130,0
9772,127,127,128,124,128,126,128,126,0
9774,129,128,127,128,127,130,129,129,0
9777,129,128,126,126,128,125,128,130,0
9780,128,122,128,137,124,130,131,128,0
9782,126,124,129,136,127,128,130,131,0
9785,126,130,127,120,128,126,127,131,0
9788,130,128,125,121,129,127,126,124,0
9791,127,127,127,119,128,128,126,132,0
9794,130,128,127,122,128,128,126,131,0
9796,129,129,128,125,127,129,128,128,0
9801,129,126,128,129,127,129,127,128,0
9806,127,127,128,133,128,126,126,133,0
9811,126,128,126,127,128,127,126,129,0
9816,128,128,127,127,127,129,129,126,0
9819,129,128,127,126,128,129,129,118,0
9823,129,127,129,130,128,130,128,121,0
9826,127,125,129,139,125,131,131,127,0
9829,128,125,129,126,128,129,127,132,0
9832,130,130,128,124,128,128,126,131,0
9836,128,127,128,121,127,132,127,131,0
9839,126,128,126,123,128,126,127,132,0
9842,128,129,129,124,128,129,127,127,0
9846,128,127,129,126,128,127,127,127,0
9850,127,127,127,126,128,129,127,123,0
9854,126,127,129,128,127,128,130,120,0
9857,127,126,129,127,127,131,127,130,0
9860,129,128,127,122,128,128,127,129,0
9863,128,128,128,122,128,126,126,123,0
9866,126,127,126,126,128,125,127,126,0
9872,126,128,127,127,127,126,127,124,0
9875,129,128,128,125,127,128,128,127,0
9878,129,127,128,126,128,128,127,130,0
9881,126,127,129,140,125,130,131,125,0
9884,127,125,128,138,125,129,131,121,0
9887,128,126,126,121,128,125,125,128,0
9890,128,130,128,122,128,129,126,130,0
9893,127,127,127,120,128,128,127,128,0
9896,127,129,128,126,128,127,128,129,0
9899,128,129,128,122,128,130,127,133,0
9901,128,127,127,123,128,125,127,128,0
9905,126,128,127,126,128,127,128,129,0
9908,126,129,128,123,128,127,128,126,0
9913,130,128,128,127,128,127,129,127,0
9917,129,127,127,124,128,128,127,125,0
9921,127,127,126,127,128,129,127,128,0
9927,127,128,128,124,127,130,127,126,0
9930,129,128,127,124,128,124,127,127,0
9932,128,125,128,137,124,130,130,125,0
9935,126,125,129,137,125,126,129,125,0
9938,125,129,125,120,129,125,127,132,0
9941,127,128,128,126,127,131,128,134,0
9943,130,127,125,124,127,132,127,132,0
9947,127,128,126,127,128,128,126,126,0
9950,126,127,127,124,129,128,127,129,0
9953,130,128,127,125,127,132,129,126,0
9955,129,126,128,126,128,131,129,124,0
9959,126,127,126,122,128,130,127,132,0
9961,126,128,128,125,129,125,128,129,0
9964,129,128,127,132,129,126,128,131,0
9967,129,129,129,137,128,126,128,133,0
9970,127,128,128,136,126,131,130,125,0
9972,126,124,128,139,126,128,130,131,0
9976,128,129,128,122,127,131,127,132,0
9980,127,128,125,121,128,126,126,128,0
9983,126,129,127,125,127,131,127,128,0
9985,127,127,125,124,127,128,129,124,0
9989,128,128,126,122,127,131,129,124,0
9992,129,128,127,135,127,127,127,127,0
9995,127,127,129,135,128,126,127,127,0
10012,127,129,129,134,127,129,127,133,0
10015,129,130,127,135,127,132,129,122,0
10020,129,127,128,132,127,129,128,121,0
10024,127,127,128,128,127,128,126,130,0
10031,126,129,129,128,129,124,126,129,0
10083,128,128,127,126,127,129,128,127,0
10095,131,127,128,133,127,127,128,127,0
10103,125,128,128,129,128,126,126,124,0
10110,125,127,130,135,124,132,130,128,0
10115,126,126,129,137,128,135,128,126,0
10121,133,128,126,122,128,126,127,132,0
10127,128,129,128,127,128,126,127,124,0
10130,126,128,128,126,129,125,127,132,0
10134,127,130,129,123,127,126,126,124,0
10138,129,130,127,123,127,128,127,126,0
10141,125,127,129,137,128,125,128,121,0
10144,126,127,126,123,128,126,127,130,0
10148,126,125,129,138,126,124,127,132,0
10151,130,130,128,124,128,126,128,130,0
10155,127,128,127,133,128,126,125,128,0
10157,125,128,128,125,128,123,127,124,0
10160,127,127,126,128,128,128,127,119,0
10163,131,128,128,126,128,126,126,128,0
10166,127,129,129,137,127,127,131,128,0
10173,127,124,129,138,125,124,130,127,0
10176,127,129,127,121,127,132,128,131,0
10180,129,129,125,121,127,129,129,125,0
10185,127,127,126,124,128,130,126,130,0
10189,125,129,127,129,128,131,127,133,0
10192,126,131,128,134,128,131,128,134,0
10195,131,128,127,124,128,131,128,128,0
10201,129,128,128,131,128,128,129,120,0
10205,126,125,129,135,127,128,127,129,0
10209,127,127,127,127,129,128,126,125,0
10214,129,128,127,123,128,129,127,134,0
10221,129,129,127,122,128,127,126,124,0
10228,126,127,126,124,129,124,126,125,0
10225,126,126,126,131,128,129,128,126,0
10232,129,127,128,128,128,128,127,123,0
10235,128,127,128,129,128,123,127,131,0
10238,124,127,129,137,125,131,131,127,0
10241,129,124,128,138,126,127,130,127,0
10245,130,129,127,121,128,129,128,129,0
10248,129,128,126,127,128,124,128,133,0
10251,125,127,128,136,128,130,126,125,0
10254,126,127,127,122,129,131,127,129,0
10257,129,127,127,127,128,131,128,130,0
10260,128,129,128,128,128,127,127,129,0
10263,128,127,129,128,128,125,126,124,0
10265,127,128,126,128,129,127,127,126,0
10268,128,127,128,125,127,126,127,128,0
10271,127,127,126,121,127,128,127,117,0
10274,128,125,128,138,126,127,130,127,0
10277,128,125,128,138,126,129,131,121,0
10282,130,130,128,124,128,127,127,130,0
10285,128,127,127,125,127,131,128,130,0
10288,126,128,128,124,128,126,126,128,0
10292,125,128,128,126,127,131,127,124,0
10297,128,127,128,124,127,131,129,126,0
10300,128,127,128,138,127,131,127,134,0
10303,128,129,129,123,127,130,126,131,0
10306,124,128,126,125,128,127,128,125,0
10309,129,129,127,126,127,128,128,129,0
10312,130,129,127,126,127,129,128,121,0
10315,127,127,126,129,126,127,129,122,0
10320,125,125,129,137,127,125,129,125,0
10326,128,128,126,125,127,131,127,133,0
10331,130,128,128,123,128,129,127,131,0
10334,127,127,128,125,127,130,127,130,0
10342,127,129,128,126,128,127,127,126,0
10347,127,128,129,128,128,128,127,130,0
10350,128,129,127,134,128,129,128,128,0
10355,128,129,128,126,127,126,131,126,0
10359,127,124,129,138,125,127,131,121,0
10363,129,127,128,128,128,128,127,128,0
10370,128,127,125,123,128,128,127,136,0
10374,125,128,128,127,129,124,127,130,0
10378,129,129,127,128,129,123,126,127,0
10381,127,127,126,124,127,129,127,130,0
10385,130,128,126,132,128,128,127,127,0
10389,129,128,127,130,128,125,128,120,0
10392,126,126,128,121,128,124,126,129,0
10395,127,130,128,131,128,126,128,129,0
10399,129,130,128,123,127,127,126,128,0
10403,128,128,126,124,128,126,126,129,0
10406,127,129,128,132,128,128,126,128,0
10410,127,129,129,133,128,127,127,131,0
10413,129,129,128,125,127,126,127,131,0
10416,127,128,128,133,127,128,131,128,0
10420,127,123,129,137,125,129,130,126,0
10423,126,126,128,132,128,126,127,131,0
10427,130,131,125,123,129,127,126,131,0
10430,129,128,128,122,128,131,128,129,0
10437,127,126,128,129,127,130,128,131,0
10434,126,126,127,128,129,125,127,126,0
10443,129,127,128,128,127,132,128,131,0
10452,129,127,128,127,129,123,127,128,0
10456,129,127,126,128,128,130,127,126,0
10464,126,127,125,126,128,130,129,133,0
10469,129,127,126,125,127,128,128,125,0
10474,128,128,128,129,128,128,127,127,0
10479,125,127,127,127,128,129,127,131,0
10485,128,128,130,142,124,130,131,123,0
10489,129,125,129,137,127,132,128,127,0
10493,129,128,128,128,128,127,127,130,0
10496,127,128,128,124,128,128,126,128,0
10500,126,129,128,126,128,131,128,130,0
10503,129,128,127,123,128,125,127,130,0
10507,127,130,126,127,128,128,127,129,0
10510,126,128,128,137,129,127,126,119,0
10513,129,126,128,126,128,126,128,125,0
10517,129,128,127,123,127,127,127,130,0
10520,128,127,127,129,128,126,129,119,0
10523,125,126,130,140,125,128,130,125,0
10527,126,125,129,134,127,130,130,125,0
10530,128,128,126,125,128,130,128,132,0
10533,129,128,128,128,128,124,126,132,0
10536,128,127,125,120,128,131,127,127,0
10539,125,127,126,126,128,132,129,128,0
10542,128,129,128,127,127,128,127,127,0
10547,129,127,127,130,127,129,129,121,0
10549,129,126,129,127,128,128,127,122,0
10552,126,127,129,138,126,128,129,122,0
10556,127,127,129,135,128,128,126,130,0
10559,129,127,128,123,128,127,127,123,0
10561,128,129,128,126,128,124,128,126,0
10564,127,128,128,126,129,127,127,133,0
10567,129,128,128,127,127,128,128,123,0
10572,129,127,126,124,128,131,128,128,0
10580,127,127,128,127,128,126,130,123,0
10584,127,124,130,135,126,130,129,124,0
10588,127,126,129,123,128,129,125,129,0
10591,129,129,128,119,128,131,126,131,0
10594,128,127,127,120,128,126,125,126,0
10597,127,126,128,124,127,129,126,123,0
10603,126,127,128,127,128,128,128,126,0
10607,129,127,126,122,127,123,127,130,0
10610,127,128,126,127,128,125,126,129,0
10612,128,129,129,139,128,126,127,131,0
10615,125,128,128,124,127,123,128,133,0
10619,128,130,128,122,127,125,127,123,0
10623,128,128,129,129,128,127,128,128,0
10626,126,127,126,127,128,126,127,126,0
10630,127,125,129,135,126,131,130,125,0
10634,129,126,128,133,126,128,126,130,0
10638,129,129,126,121,128,126,126,133,0
10641,127,129,126,126,128,124,126,129,0
10643,126,126,129,133,127,127,128,133,0
10646,129,130,127,126,128,128,127,131,0
10651,128,127,128,124,127,130,128,126,0
10654,127,129,128,135,128,126,127,129,0
10658,127,129,126,126,127,124,127,130,0
10662,129,128,126,124,127,127,126,125,0
10666,128,129,127,124,128,124,125,129,0
10669,126,127,126,124,128,128,126,123,0
10672,126,128,128,127,128,124,127,130,0
10676,129,128,127,132,127,129,127,131,0
10679,128,128,126,133,128,126,131,129,0
10683,126,123,129,136,125,129,129,124,0
10687,125,126,129,134,125,126,127,126,0
10692,131,129,127,121,128,129,126,129,0
10696,128,128,127,123,128,130,127,131,0
10702,128,128,127,128,128,126,126,127,0
10707,127,130,126,123,129,124,126,129,0
10711,128,128,128,127,128,129,128,129,0
10714,128,127,126,130,127,131,129,128,0
10717,126,129,126,128,128,123,127,127,0
10721,126,127,129,129,128,125,127,126,0
10724,130,128,129,130,128,127,127,129,0
10727,128,130,126,121,128,126,127,129,0
10730,127,127,129,138,127,127,130,127,0
10734,126,124,129,137,125,126,128,126,0
10737,128,128,126,122,128,130,126,129,0
10740,129,128,128,124,129,127,126,124,0
10742,127,128,126,125,128,128,126,128,0
10745,126,127,128,123,127,131,128,133,0
10749,130,129,128,125,127,125,128,126,0
10751,129,129,128,131,128,124,128,129,0
10755,127,127,126,126,128,128,127,125,0
10759,126,130,126,122,128,126,126,124,0
10763,126,128,129,127,128,129,128,135,0
10767,130,128,128,123,128,128,127,127,0
10770,129,127,126,123,128,132,130,126,0
10776,127,124,129,138,125,128,130,123,0
10782,126,126,128,121,127,128,126,130,0
10787,127,128,128,127,128,127,127,125,0
10790,128,128,126,124,128,127,127,134,0
10793,127,127,128,127,128,127,126,130,0
10797,127,128,128,126,127,131,128,131,0
10800,129,128,126,125,128,129,128,127,0
10803,128,128,127,128,128,123,126,132,0
10809,127,129,129,137,126,127,129,122,0
10814,127,129,126,124,127,127,127,126,0
10819,129,129,126,129,129,124,126,129,0
10823,127,126,126,127,128,128,127,134,0
10826,127,129,129,135,129,123,127,128,0
10830,127,129,128,127,127,125,128,129,0
10833,129,129,128,125,128,127,127,125,0
10836,126,128,129,136,128,126,128,124,0
10840,125,127,128,122,127,127,127,125,0
10843,127,127,127,129,127,131,130,122,0
10846,130,127,127,129,127,130,128,120,0
10849,127,127,128,129,128,125,128,128,0
10854,126,127,127,136,128,127,126,130,0
10857,129,127,126,126,128,126,126,125,0
10861,128,126,128,136,123,130,130,129,0
10863,128,122,129,136,125,127,129,125,0
10866,126,125,128,133,127,131,127,132,0
10869,126,128,125,124,128,124,127,128,0
10874,130,128,126,123,128,127,126,131,0
10877,127,127,127,127,130,130,128,132,0
10880,126,130,126,124,128,125,126,131,0
10883,125,127,128,125,129,124,126,127,0
10885,128,129,128,127,128,126,126,126,0
10888,128,128,127,124,128,127,126,128,0
10894,127,127,128,123,128,129,127,124,0
10898,127,128,128,127,128,124,127,120,0
10901,130,129,126,125,127,128,128,131,0
10904,128,127,128,125,127,129,128,124,0
10909,125,127,126,131,128,126,127,123,0
10913,125,127,128,133,127,124,127,129,0
10916,129,127,127,129,128,124,130,121,0
10920,129,125,128,126,128,126,127,126,0
10923,127,128,128,125,128,126,128,117,0
10929,125,126,126,119,127,133,127,131,0
10934,130,129,128,121,127,130,127,130,0
10939,127,128,128,129,127,128,126,125,0
10947,126,123,128,134,124,131,129,125,0
10950,130,123,129,133,130,130,126,128,0
10954,130,129,126,123,128,128,127,125,0
10957,129,128,126,122,128,126,126,129,0
10961,127,127,128,130,128,129,128,132,0
10964,125,127,125,120,128,128,127,129,0
10967,128,128,125,125,127,130,129,128,0
10970,128,129,128,126,128,125,126,127,0
10974,127,127,129,132,128,127,127,133,0
10977,126,130,128,129,128,129,128,129,0
10980,129,130,127,126,128,132,128,132,0
10983,129,128,127,127,128,126,126,129,0
10986,127,128,129,137,128,127,127,120,0
10990,126,124,129,139,124,126,130,125,0
10992,129,126,126,123,129,128,127,130,0
10997,128,127,126,125,128,131,129,125,0
11000,128,127,126,128,128,130,128,130,0
11004,127,128,129,128,129,128,127,124,0
11007,128,129,128,127,128,127,127,123,0
11010,130,128,128,127,128,123,128,124,0
11014,127,128,126,124,128,127,128,120,0
11017,125,128,128,125,128,124,126,126,0
11021,129,128,128,127,128,124,128,129,0
11024,128,127,128,126,127,129,128,132,0
11028,129,128,128,139,128,123,128,131,0
11031,126,128,128,138,128,129,128,126,0
11035,125,128,126,125,127,124,127,126,0
11038,129,127,127,126,127,127,127,123,0
11042,128,127,128,125,127,129,127,123,0
11047,127,127,129,136,125,130,130,130,0
11050,127,125,129,137,126,125,127,130,0
11053,129,128,127,122,128,127,128,131,0
11056,129,130,126,126,128,128,126,132,0
11059,126,127,128,125,128,124,127,134,0
11062,125,127,128,126,128,128,127,131,0
11065,129,128,128,125,127,130,128,128,0
11068,130,128,127,122,127,125,127,130,0
11071,126,128,128,125,128,129,126,122,0
11074,127,128,126,122,127,127,128,127,0
11082,129,128,129,137,126,127,127,128,0
11087,126,128,128,125,128,128,128,133,0
11092,125,129,129,129,128,127,128,131,0
11095,126,127,128,135,127,126,128,121,0
11099,132,127,128,124,128,130,131,120,0
11102,128,127,126,128,128,128,127,119,0
11105,127,126,129,135,127,127,129,123,0
11109,126,126,128,133,126,129,129,130,0
11113,130,126,126,117,127,132,127,132,0
11116,128,127,125,121,127,128,125,134,0
11120,127,126,128,120,128,129,126,128,0
11123,126,127,126,121,128,130,128,128,0
11127,129,128,128,122,128,128,127,129,0
11130,128,127,128,125,128,130,127,131,0
11133,126,128,128,124,128,123,126,125,0
11135,125,128,126,122,128,127,127,129,0
11141,128,127,129,129,128,124,127,124,0
11144,129,128,127,126,127,131,128,127,0
11146,127,128,129,130,128,125,129,122,0
11152,127,126,129,137,127,126,130,122,0
11155,128,129,126,125,127,129,126,131,0
11160,128,127,126,127,128,129,128,131,0
11164,124,127,128,126,126,130,129,119,0
11170,128,127,128,124,128,127,126,129,0
11174,129,128,126,123,127,131,128,128,0
11177,128,128,127,134,126,128,131,125,0
11181,127,123,129,138,125,126,129,123,0
11184,126,126,129,124,130,127,127,129,0
11189,129,129,125,122,128,129,126,129,0
11192,129,128,126,126,128,128,126,131,0
11195,127,128,128,127,127,130,127,133,0
11199,125,127,127,128,129,127,127,125,0
11202,128,127,128,127,127,131,128,130,0
11205,128,128,128,121,128,129,127,128,0
11209,128,127,126,127,128,125,126,120,0
11212,126,128,128,123,129,124,126,132,0
11216,129,130,127,125,127,128,127,124,0
11219,129,129,129,128,128,126,127,124,0
11222,127,130,129,140,127,124,130,119,0
11225,126,125,130,136,126,127,130,126,0
11229,126,128,128,125,127,131,130,126,0
11232,130,128,126,120,128,129,128,129,0
11235,128,129,126,132,128,127,127,131,0
11239,128,127,126,123,128,127,126,125,0
11242,127,129,126,122,128,124,126,126,0
11245,129,128,127,123,128,126,126,129,0
11249,128,128,129,130,128,125,128,123,0
11252,127,126,128,133,127,128,129,130,0
11254,125,129,128,128,128,125,129,131,0
11257,129,129,127,126,127,127,126,131,0
11260,128,126,128,138,127,130,131,124,0
11263,127,126,129,135,126,128,129,124,0
11267,127,128,125,120,129,124,127,130,0
11272,130,128,126,119,128,130,125,134,0
11278,128,128,126,122,128,130,127,132,0
11281,128,128,126,122,128,127,126,124,0
11283,127,127,128,122,127,129,127,133,0
11286,129,129,128,125,128,125,126,129,0
11290,128,129,128,128,128,122,126,127,0
11293,127,127,128,122,128,123,129,120,0
11296,124,128,128,123,128,127,128,130,0
11300,130,130,128,126,127,128,128,130,0
11303,127,127,128,126,126,127,131,130,0
11306,126,123,128,139,126,127,130,122,0
11309,127,125,128,132,128,127,126,128,0
11312,129,127,127,126,127,131,127,133,0
11314,130,127,127,123,128,129,128,129,0
11317,124,128,126,123,128,126,126,130,0
11320,126,128,129,128,128,126,127,131,0
11322,128,129,128,125,128,127,128,130,0
11325,130,128,128,127,128,124,127,131,0
11328,127,127,128,125,128,127,127,119,0
11331,127,127,127,130,128,129,129,126,0
11334,130,129,128,125,127,124,127,125,0
11337,129,128,128,123,128,123,128,132,0
11340,127,128,127,129,126,126,131,124,0
11343,126,124,129,138,126,126,129,121,0
11345,128,129,127,125,127,128,126,130,0
11349,129,129,126,123,127,127,126,132,0
11353,126,126,128,125,129,123,127,128,0
11356,126,127,128,121,128,126,127,127,0
11360,128,127,128,127,127,131,128,125,0
11365,129,128,128,128,128,128,127,133,0
11371,125,127,126,122,127,128,127,128,0
11376,124,128,128,126,127,124,127,129,0
11383,128,128,126,126,127,129,128,128,0
11387,128,128,127,130,128,127,128,128,0
11391,126,126,128,133,127,130,127,124,0
11394,127,127,129,128,128,123,127,128,0
11397,128,129,128,122,127,131,128,129,0
11402,128,129,128,126,128,128,130,130,0
11406,127,124,129,136,124,131,131,120,0
11409,127,123,128,135,127,126,129,128,0
11412,127,131,126,121,129,127,127,131,0
11414,129,128,128,129,128,128,127,125,0
11417,127,127,127,124,128,128,126,129,0
11420,126,128,125,125,128,127,128,132,0
11423,127,131,126,125,128,123,128,129,0
11428,129,129,128,127,128,125,127,130,0
11432,125,129,129,125,128,130,126,130,0
11435,127,126,129,128,128,128,127,128,0
11439,128,128,127,122,127,128,127,128,0
11441,130,128,128,126,128,127,126,131,0
11445,127,128,129,130,128,127,126,128,0
11447,125,127,129,139,126,129,130,120,0
11450,126,126,129,136,128,129,127,130,0
11453,128,128,127,122,128,124,126,122,0
11456,128,127,126,123,128,129,127,128,0
11460,128,127,126,123,129,127,127,131,0
11463,128,128,128,129,128,125,128,129,0
11466,129,128,128,135,127,126,128,124,0
11469,128,127,129,139,126,126,130,125,0
11473,125,124,130,138,126,127,130,123,0
11477,124,128,128,120,128,127,126,126,0
11483,130,127,128,123,127,128,127,135,0
11486,126,128,125,122,128,131,128,131,0
11494,129,127,127,123,128,127,127,128,0
11496,128,127,128,125,128,129,127,130,0
11500,129,128,126,128,127,129,128,125,0
11503,128,128,127,125,128,127,125,129,0
11506,126,130,129,123,127,128,127,128,0
11509,127,128,129,140,124,127,131,124,0
11512,128,126,128,123,128,131,127,132,0
11515,129,127,126,121,127,131,127,130,0
11518,126,128,126,121,128,128,127,128,0
11521,127,128,128,126,128,124,127,124,0
11527,129,129,128,129,128,124,126,125,0
11530,128,129,128,139,129,124,128,132,0
11535,127,128,128,136,129,125,127,123,0
11538,127,127,128,126,128,130,127,128,0
11541,128,128,128,124,127,127,128,131,0
11544,128,130,128,128,127,127,127,135,0
11547,127,128,128,126,128,124,127,127,0
11552,124,125,130,140,126,131,131,123,0
11555,129,127,126,130,127,127,126,130,0
11559,129,127,127,132,127,128,130,127,0
11563,127,123,129,134,126,129,129,124,0
11566,125,126,128,127,130,127,125,128,0
11571,129,128,128,123,128,129,126,128,0
11575,129,126,129,126,128,127,126,132,0
11578,125,127,128,127,128,127,126,133,0
11581,125,127,128,126,127,126,126,127,0
11585,129,128,128,126,127,128,129,133,0
11589,129,129,128,131,128,127,128,130,0
11594,127,128,128,123,128,126,128,129,0
11598,126,130,128,122,128,126,129,120,0
11604,129,127,126,127,127,130,127,128,0
11612,126,128,128,133,126,131,130,128,0
11609,129,127,127,126,127,123,126,129,0
11614,125,124,130,134,127,124,126,129,0
11618,129,129,126,124,128,128,127,126,0
11621,129,129,128,128,128,127,126,125,0
11624,127,127,126,123,129,127,126,124,0
11629,125,129,128,127,129,128,126,127,0
11633,127,128,126,122,127,131,127,133,0
11638,128,130,127,123,128,124,127,130,0
11640,130,128,128,129,128,127,126,129,0
11643,127,128,127,127,128,126,127,130,0
11646,127,128,128,130,128,127,128,129,0
11650,129,128,129,128,128,125,130,123,0
11653,128,124,128,137,125,128,130,122,0
11657,126,124,128,138,127,126,127,129,0
11660,127,129,125,123,128,130,127,135,0
11663,130,128,128,126,127,131,127,129,0
11667,128,128,126,127,128,130,128,119,0
11670,128,127,128,126,129,125,126,131,0
11672,126,127,128,123,128,128,127,127,0
11675,129,128,127,125,128,129,127,129,0
11679,127,127,129,127,128,129,127,129,0
11684,127,128,127,126,128,127,128,129,0
11691,127,127,128,133,127,129,128,132,0
11694,129,129,128,127,128,127,127,129,0
11697,127,126,129,135,127,125,128,122,0
11701,128,126,129,133,127,125,129,123,0
11704,127,128,125,118,128,132,127,130,0
11708,129,130,127,120,128,128,127,131,0
11713,130,129,128,126,128,124,128,129,0
11720,128,128,128,126,128,128,127,132,0
11726,128,129,127,128,128,128,127,127,0
11730,129,130,128,128,127,128,128,127,0
11733,128,128,129,136,128,128,127,128,0
11737,125,126,129,127,129,127,126,120,0
11740,125,127,129,132,127,128,127,133,0
11743,129,128,128,122,128,128,127,134,0
11747,128,128,128,125,127,129,127,124,0
11751,126,127,126,121,128,129,126,122,0
11754,126,128,127,123,128,125,128,128,0
11759,129,128,126,125,127,130,128,134,0
11763,129,128,128,137,126,127,130,129,0
11768,127,123,130,143,124,126,131,122,0
11771,126,124,129,134,128,130,129,129,0
11773,129,130,126,123,128,126,126,130,0
11776,126,128,128,128,127,130,127,134,0
11779,127,128,126,129,128,129,129,119,0
11782,127,129,128,125,128,131,126,130,0
11785,130,130,126,123,128,128,127,123,0
11789,129,127,128,126,128,129,127,132,0
11792,127,128,126,129,128,125,127,121,0
11795,126,127,129,129,127,123,129,129,0
11798,125,128,128,130,127,125,128,129,0
11801,127,128,127,138,127,123,125,130,0
11805,128,128,127,126,128,128,126,123,0
11809,126,128,128,124,127,129,130,125,0
11812,128,127,128,135,125,125,128,131,0
11816,128,128,128,123,127,127,126,129,0
11820,127,127,128,123,128,127,128,128,0
11823,126,128,128,127,128,130,129,130,0
11827,129,128,127,125,128,128,128,129,0
11831,129,129,128,130,128,129,128,126,0
11834,127,128,129,139,125,131,130,127,0
11838,127,124,128,136,127,126,126,132,0
11843,128,127,128,126,129,127,127,126,0
11849,128,129,128,127,127,131,128,131,0
11852,129,130,127,132,128,124,126,131,0
11855,129,129,128,133,128,129,126,129,0
11858,126,130,129,130,128,129,128,130,0
11860,129,128,127,125,127,130,128,126,0
11863,128,128,128,134,128,128,126,126,0
11867,126,129,126,123,128,126,126,128,0
11870,127,126,129,124,127,131,127,129,0
11873,129,128,129,128,128,126,126,132,0
11877,128,128,128,125,128,124,127,129,0
11880,126,127,129,129,127,127,130,120,0
11883,128,126,129,139,126,129,129,133,0
11886,129,129,127,123,128,127,127,128,0
11890,129,129,127,122,128,128,126,121,0
11894,125,129,126,124,128,128,128,127,0
11897,127,128,127,124,127,127,128,133,0
11901,130,128,126,123,128,129,127,129,0
11904,127,127,128,126,128,125,126,129,0
11908,127,127,128,138,125,130,131,127,0
11911,127,126,128,136,124,126,129,120,0
11916,127,128,128,121,128,129,127,128,0
11920,128,127,126,125,128,126,128,126,0
11923,127,128,128,123,129,127,128,127,0
11927,126,128,128,125,129,130,129,127,0
11930,130,127,126,124,127,128,127,131,0
11933,129,130,126,132,128,127,126,132,0
11936,125,126,129,126,128,127,126,124,0
11940,126,129,128,126,127,125,128,133,0
11945,130,130,128,128,128,125,127,120,0
11950,125,130,126,128,128,127,127,132,0
11953,124,127,128,124,127,123,127,132,0
11956,127,129,128,132,127,129,129,134,0
11959,130,128,128,129,127,130,128,129,0
11962,128,127,127,129,128,125,127,130,0
11964,127,128,129,129,127,128,131,131,0
11967,126,123,128,139,126,127,130,122,0
11971,129,129,126,122,128,130,125,126,0
11973,127,128,129,128,127,131,126,131,0
11976,127,127,126,123,128,131,127,129,0
11981,128,129,127,124,129,126,126,132,0
11984,130,128,128,131,128,126,126,126,0
11994,127,127,128,125,128,123,126,130,0
11997,125,129,129,127,128,125,126,132,0
12000,128,127,128,122,127,129,127,127,0
12003,129,128,127,122,128,130,129,122,0
12006,128,126,130,136,126,125,129,124,0
12010,126,124,129,134,126,128,127,125,0
12014,126,129,125,125,129,129,128,126,0
12017,129,128,125,124,127,128,128,130,0
12020,129,129,128,125,128,125,126,126,0
12024,127,128,125,122,127,128,127,133,0
12027,125,128,128,124,127,128,128,128,0
12032,127,129,127,125,127,125,128,129,0
12036,129,128,126,127,128,128,127,131,0
12039,128,129,127,128,128,128,128,126,0
12042,126,128,127,126,128,125,128,129,0
12045,127,128,127,124,128,128,127,129,0
12048,129,128,128,124,128,123,127,122,0
12052,127,128,128,135,128,129,126,131,0
12055,127,128,127,127,128,124,128,127,0
12062,130,129,127,128,127,129,129,124,0
12066,128,127,128,125,127,129,129,124,0
12069,127,124,128,137,125,131,131,131,0
12073,126,125,130,134,127,126,130,123,0
12076,127,127,127,124,127,129,126,131,0
12079,129,128,127,124,128,129,128,127,0
12082,129,128,125,121,128,129,125,131,0
12086,125,129,126,123,128,125,126,123,0
12089,130,127,125,125,127,131,129,131,0
12092,130,129,126,126,128,126,126,121,0
12095,129,127,127,127,128,130,126,129,0
12098,127,129,128,123,127,130,127,127,0
12101,127,128,127,123,128,130,127,132,0
12104,129,128,127,128,128,124,126,127,0
12107,128,129,129,123,128,124,126,130,0
12110,127,129,128,123,128,124,127,129,0
12112,127,129,128,126,128,124,127,124,0
12115,128,127,127,128,128,125,128,125,0
12118,128,126,130,139,125,128,130,130,0
12121,128,123,129,139,126,126,129,126,0
12129,129,131,127,124,128,126,127,127,0
12124,126,128,125,121,128,127,128,125,0
12132,128,128,128,121,128,130,127,135,0
12135,125,130,126,127,128,128,127,127,0
12138,126,127,126,122,127,128,128,128,0
12141,129,131,128,124,127,124,126,124,0
12144,127,127,127,123,127,124,128,129,0
12147,127,127,129,126,128,126,126,122,0
12150,127,128,126,126,128,127,127,122,0
12152,128,127,129,132,127,127,127,131,0
12157,127,128,129,127,128,128,131,126,0
12162,128,123,129,138,125,128,129,122,0
12167,126,125,129,133,128,131,127,130,0
12171,128,128,127,124,128,128,127,130,0
12174,129,126,128,123,128,128,126,132,0
12177,127,128,127,126,128,125,126,125,0
12182,125,129,126,124,128,127,127,131,0
12185,130,127,128,123,127,124,128,133,0
12189,129,128,129,126,128,124,128,125,0
12192,127,128,128,136,128,126,126,129,0
12195,125,128,128,128,127,127,128,125,0
12198,132,128,128,122,127,126,129,125,0
12201,129,129,129,124,127,125,127,128,0
12204,128,127,126,137,128,127,128,129,0
12207,127,128,129,138,126,130,131,126,0
12210,129,125,129,137,126,127,127,126,0
12213,129,127,126,121,128,128,126,130,0
12216,126,129,128,124,128,127,126,130,0
12220,126,127,128,122,128,129,128,124,0
12223,129,128,127,125,127,129,127,131,0
12226,130,129,128,120,128,128,127,130,0
12229,127,127,127,124,128,128,126,131,0
12233,125,127,128,128,128,125,126,122,0
12236,129,129,128,127,127,127,126,128,0
12240,128,127,127,129,128,125,127,124,0
12243,127,128,129,123,128,125,126,118,0
12248,125,126,129,135,125,131,130,129,0
12252,128,124,129,137,125,127,127,131,0
12254,130,130,127,121,128,131,126,129,0
12257,127,127,128,125,128,127,127,123,0
12260,126,128,128,127,128,126,127,130,0
12263,127,128,128,123,128,130,126,132,0
12268,129,128,126,122,128,125,127,129,0
12274,128,127,128,123,127,125,126,129,0
12277,128,129,128,124,128,128,126,129,0
12280,127,127,127,131,128,126,128,129,0
12282,129,128,126,126,127,128,128,119,0
12285,127,127,129,142,127,129,130,123,0
12294,125,125,129,138,127,127,130,122,0
12297,127,127,128,125,128,124,127,133,0
12301,129,128,128,121,127,131,128,132,0
12305,129,128,128,125,128,124,125,133,0
12308,126,127,128,125,128,126,126,130,0
12313,127,129,128,126,128,127,128,132,0
12317,129,130,128,127,128,126,127,129,0
12320,127,128,126,127,128,127,128,126,0
12325,126,128,127,124,127,127,127,133,0
12329,126,127,128,128,127,130,129,127,0
12332,129,128,127,129,127,130,128,132,0
12335,128,128,129,136,129,127,128,124,0
12338,125,126,126,124,127,129,130,123,0
12341,127,124,128,135,126,128,130,122,0
12345,129,125,128,132,127,128,126,131,0
12348,128,126,127,126,127,131,127,133,0
12351,126,128,128,123,127,125,126,132,0
12354,128,130,126,123,128,128,126,123,0
12357,131,127,128,124,127,128,126,135,0
12360,127,126,126,124,128,129,126,127,0
12364,126,127,128,125,128,127,126,123,0
12367,127,128,128,125,128,127,126,129,0
12370,130,129,127,127,127,126,127,131,0
12373,129,128,126,127,127,129,126,125,0
12379,125,127,129,139,124,129,130,126,0
12381,127,125,130,135,127,128,127,133,0
12386,129,128,127,132,127,131,129,131,0
12391,128,129,128,128,128,127,128,131,0
12395,126,128,128,125,127,130,128,126,0
12397,126,127,128,125,128,130,127,130,0
12401,129,129,127,133,127,129,126,130,0
12404,128,128,127,122,127,127,126,125,0
12407,125,127,128,125,129,122,127,132,0
12411,127,127,128,126,127,127,127,123,0
12414,130,127,127,128,127,130,128,126,0
12417,127,128,126,126,128,128,130,125,0
12420,127,126,128,127,129,126,128,131,0
12424,125,125,130,139,125,127,131,122,0
12427,128,125,128,125,128,127,127,127,0
12435,127,127,128,125,127,131,127,131,0
12438,127,127,126,123,128,127,125,134,0
12441,127,127,128,122,127,131,127,132,0
12445,129,129,127,131,127,132,129,125,0
12448,128,128,127,122,128,130,127,130,0
12451,128,128,128,133,128,128,129,120,0
12453,124,127,128,138,128,127,127,132,0
12457,129,129,128,127,128,126,129,122,0
12460,130,127,126,128,128,124,128,122,0
12463,127,127,128,127,128,125,127,131,0
12466,126,127,127,131,130,129,131,122,0
12469,128,123,129,135,125,128,130,125,0
12472,129,127,127,123,128,129,127,128,0
12475,127,127,125,124,128,131,127,132,0
12478,126,129,128,133,127,128,126,131,0
12480,126,130,128,121,127,130,128,135,0
12483,130,127,126,126,127,126,128,128,0
12487,130,127,127,127,127,128,127,130,0
12492,128,128,126,127,128,129,128,119,0
12496,127,129,126,123,128,127,127,128,0
12499,129,128,128,127,127,129,127,129,0
12502,129,128,128,128,128,124,125,127,0
12505,127,128,126,125,128,125,128,125,0
12508,127,128,126,124,127,128,128,128,0
12511,129,128,126,126,128,128,130,120,0
12514,128,126,129,136,126,127,129,124,0
12517,126,123,128,136,126,128,129,123,0
12520,126,127,127,123,128,128,127,129,0
12524,129,128,125,120,128,130,128,131,0
12528,128,129,127,127,128,128,125,131,0
12531,127,129,126,123,128,125,128,121,0
12534,127,126,128,121,127,130,129,129,0
12537,130,128,127,123,128,126,126,126,0
12540,129,128,128,127,128,124,127,133,0
12543,125,129,127,128,128,125,125,126,0
12546,127,129,128,124,128,127,128,127,0
12550,129,127,126,128,127,130,130,123,0
