Start Recording
15,128,128,125,127,128,128,128,128,0
20,122,127,128,128,127,127,127,127,0
24,123,127,127,130,126,127,127,128,0
28,133,129,127,126,128,128,126,127,0
31,132,129,127,128,129,128,129,128,0
35,127,127,126,127,130,128,129,128,0
39,120,128,125,127,128,127,127,129,0
42,130,129,128,128,129,129,127,128,0
46,123,128,127,127,128,127,126,128,0
50,128,128,129,129,126,126,127,126,0
55,124,126,128,129,125,127,126,127,0
60,133,128,127,127,128,128,127,128,0
63,131,128,127,127,127,128,128,127,0
67,131,125,125,127,129,128,128,128,0
70,123,127,125,127,127,128,128,129,0
73,132,128,128,127,127,128,127,128,0
78,129,127,126,127,127,128,128,128,0
81,123,127,128,126,126,127,128,125,0
84,125,128,128,130,125,126,127,126,0
86,124,128,127,126,129,128,129,128,0
89,131,128,126,126,127,128,127,128,0
92,130,126,130,126,128,129,127,125,0
96,118,126,127,129,125,127,126,128,0
100,132,129,128,126,129,127,128,128,0
103,128,128,130,126,128,128,127,127,0
107,123,126,128,127,128,128,128,128,0
110,130,127,126,127,127,129,126,128,0
113,129,128,127,128,128,128,129,129,0
116,127,128,126,127,127,128,129,128,0
119,120,128,127,130,126,126,127,127,0
131,125,127,129,129,125,126,127,126,0
136,124,127,130,127,129,128,127,128,0
139,130,130,129,128,129,128,128,128,0
143,129,128,130,127,129,127,129,127,0
146,123,126,128,129,127,127,126,127,0
149,128,128,127,126,128,128,128,129,0
153,133,129,126,127,128,127,127,129,0
156,127,127,128,126,129,127,126,127,0
159,127,127,129,129,127,128,127,128,0
163,127,128,127,127,128,128,129,130,0
173,125,128,125,129,123,127,127,127,0
177,129,128,128,128,129,127,127,127,0
180,121,128,127,129,125,126,128,126,0
183,125,128,126,129,125,128,128,129,0
187,132,129,127,125,128,128,128,128,0
190,133,128,129,127,130,127,127,127,0
193,126,127,129,128,128,127,127,127,0
196,128,128,128,127,128,127,127,128,0
199,130,128,128,129,127,127,128,127,0
203,123,128,127,128,129,127,128,127,0
206,129,128,129,130,126,126,128,125,0
210,123,127,128,129,125,126,127,128,0
215,133,127,130,126,130,127,128,127,0
218,130,129,129,128,129,128,130,128,0
221,122,127,128,128,125,128,128,127,0
223,130,127,128,126,129,127,128,128,0
230,130,127,129,130,125,126,127,126,0
227,130,128,126,128,128,128,129,128,0
234,124,127,128,130,125,126,127,126,0
245,124,127,128,128,130,128,126,128,0
248,133,128,127,125,129,128,128,129,0
253,131,128,128,127,129,127,127,127,0
257,130,126,130,128,125,129,126,127,0
260,125,127,126,127,128,128,129,129,0
264,125,129,125,127,128,127,126,128,0
267,131,128,128,128,125,127,128,128,0
271,119,128,129,130,125,126,126,126,0
319,125,128,129,129,125,126,126,126,0
329,130,129,127,125,128,128,127,128,0
336,131,128,127,127,129,128,126,127,0
390,132,127,128,127,127,127,126,125,0
397,118,125,127,127,128,127,127,128,0
401,133,129,128,127,129,128,126,129,0
406,131,129,128,128,128,127,128,127,0
410,131,128,127,127,130,127,127,126,0
456,123,127,128,130,125,126,127,126,0
462,125,128,126,126,129,128,127,128,0
468,134,129,129,126,129,127,125,127,0
472,127,127,128,128,125,126,126,126,0
476,120,126,127,129,128,128,127,128,0
480,132,129,130,127,129,128,127,129,0
483,128,128,125,127,127,128,128,128,0
486,128,128,128,126,129,129,129,127,0
490,123,127,127,130,125,126,127,127,0
493,123,126,130,126,129,128,126,128,0
497,133,129,129,127,129,127,129,128,0
500,129,127,127,127,128,128,127,127,0
503,123,128,127,129,126,126,126,129,0
507,131,128,129,128,129,128,127,128,0
510,132,129,127,125,129,129,129,129,0
513,129,127,126,127,128,128,127,127,0
517,129,125,126,125,127,127,128,128,0
519,126,128,127,126,127,128,128,129,0
524,130,128,126,127,127,127,127,128,0
528,129,128,126,127,129,127,128,127,0
532,127,126,128,128,126,128,127,127,0
537,129,128,128,128,125,128,127,128,0
541,127,128,128,129,128,128,127,128,0
544,123,128,130,130,124,126,127,126,0
546,126,127,127,129,125,126,127,126,0
549,125,128,127,127,128,128,127,128,0
552,133,129,129,127,129,128,129,128,0
591,130,128,127,127,127,127,128,129,0
598,123,127,126,128,128,130,127,127,0
603,130,128,126,126,128,128,127,128,0
608,132,129,129,128,129,127,127,127,0
613,131,128,128,128,129,128,129,127,0
659,130,127,129,126,126,128,127,127,0
666,127,128,128,127,125,128,128,128,0
671,131,129,129,129,129,128,129,127,0
727,123,127,128,129,125,126,127,126,0
734,125,126,127,128,125,127,127,125,0
739,123,128,128,129,125,129,129,128,0
744,134,129,127,127,129,128,129,128,0
749,132,126,129,127,128,128,126,127,0
753,124,125,130,128,129,127,127,128,0
757,125,127,127,127,129,128,129,129,0
760,130,128,125,127,127,127,128,129,0
763,125,128,126,126,126,127,128,128,0
765,121,127,128,130,125,126,127,125,0
768,123,128,128,129,123,128,128,128,0
773,133,128,127,127,128,128,127,127,0
779,132,126,129,128,129,128,129,128,0
782,124,128,125,128,126,128,127,128,0
786,117,128,129,128,125,128,128,128,0
789,131,129,129,128,128,127,126,128,0
794,130,128,126,126,128,128,129,127,0
797,125,126,128,128,125,127,127,127,0
800,125,125,128,130,125,126,126,127,0
803,125,128,127,129,125,126,127,127,0
806,125,126,130,127,131,128,127,128,0
811,123,126,128,127,129,128,127,128,0
815,128,125,130,127,130,129,129,127,0
818,132,129,126,125,128,128,129,128,0
821,131,128,126,128,128,128,129,127,0
825,128,127,130,128,127,129,127,125,0
829,124,127,126,130,126,126,126,128,0
832,131,128,126,127,128,128,128,128,0
835,133,128,128,126,127,127,126,127,0
838,126,126,128,125,129,129,128,127,0
841,121,124,128,129,126,126,127,126,0
844,127,127,127,128,130,128,128,128,0
860,131,128,127,125,129,128,129,128,0
864,128,127,125,128,129,130,128,127,0
868,120,125,128,127,129,127,128,128,0
871,126,128,126,127,129,127,127,127,0
875,131,128,126,127,128,128,127,127,0
878,129,128,128,128,128,128,129,127,0
881,121,126,128,126,127,128,128,127,0
884,130,127,128,128,128,128,127,128,0
888,131,129,128,128,127,128,127,127,0
893,131,128,128,129,125,126,127,126,0
928,126,127,127,129,126,127,128,126,0
933,124,128,128,130,128,129,128,128,0
938,133,129,128,126,130,129,129,129,0
942,130,127,127,126,129,130,130,128,0
946,120,126,128,130,125,127,127,128,0
996,127,129,126,126,129,128,129,129,0
1001,135,129,129,128,128,128,127,127,0
1007,130,127,127,128,129,128,130,126,0
1015,131,127,127,126,128,128,127,128,0
1019,127,129,128,127,129,127,127,128,0
1023,127,129,129,128,128,127,127,128,0
1027,125,128,127,128,129,128,128,126,0
1030,125,128,129,130,126,126,127,126,0
1034,123,127,126,129,129,127,127,127,0
1037,133,128,130,127,129,127,127,127,0
1040,130,128,128,128,130,128,128,126,0
1043,122,125,127,129,126,126,127,126,0
1046,124,127,127,128,129,128,127,128,0
1048,130,129,127,128,130,128,128,128,0
1052,131,128,126,127,127,128,126,127,0
1055,128,125,129,128,128,128,126,126,0
1057,124,125,130,126,129,127,127,127,0
1062,125,129,128,127,129,127,126,128,0
1067,125,128,129,129,129,127,128,127,0
1072,128,128,128,126,129,127,128,126,0
1077,123,127,128,130,125,126,127,126,0
1082,125,128,129,128,129,129,129,128,0
1087,130,128,125,126,127,128,128,127,0
1090,128,127,127,127,126,129,127,126,0
1093,124,127,127,129,126,126,127,127,0
1096,130,129,127,126,128,128,127,127,0
1098,131,129,128,127,129,127,127,128,0
1101,122,126,128,129,127,126,128,125,0
1104,124,128,128,129,126,126,128,129,0
1106,133,128,125,127,130,128,127,128,0
1109,130,128,128,128,129,128,128,128,0
1112,123,126,126,127,128,127,127,127,0
1130,127,124,127,128,130,128,128,128,0
1135,131,129,128,127,127,127,126,127,0
1139,129,128,129,128,129,127,127,128,0
1143,122,128,130,128,128,126,127,126,0
1147,123,127,128,130,126,126,126,127,0
1151,123,128,127,126,128,128,128,128,0
1154,134,129,128,125,129,127,127,127,0
1157,127,125,129,128,126,127,127,126,0
1159,124,127,128,129,125,126,126,128,0
1163,132,128,127,127,128,128,127,128,0
1166,130,127,127,125,129,128,129,128,0
1169,131,126,130,128,129,128,129,128,0
1173,124,125,126,128,125,127,127,129,0
1176,130,128,126,125,128,128,130,129,0
1179,130,128,126,127,128,128,129,129,0
1183,126,127,126,127,128,128,128,126,0
1198,123,128,128,129,126,127,128,126,0
1205,123,128,127,127,128,128,127,127,0
1211,134,128,129,127,129,128,127,127,0
1215,130,127,130,128,128,128,126,127,0
1218,117,127,129,129,126,127,127,128,0
1222,130,128,126,128,129,128,129,128,0
1226,131,128,126,127,128,128,129,128,0
1229,124,127,128,128,129,127,127,127,0
1232,129,127,128,126,128,127,128,127,0
1237,129,128,127,127,126,128,126,127,0
1240,129,129,127,127,129,127,127,127,0
1243,124,127,129,130,125,126,127,125,0
1247,128,127,127,129,125,127,127,126,0
1250,124,127,128,125,129,129,128,128,0
1253,131,128,129,127,129,127,127,128,0
1258,128,128,129,127,129,128,129,128,0
1261,124,127,127,127,125,127,128,128,0
1264,127,128,129,128,129,128,127,128,0
1269,126,128,126,128,126,127,127,128,0
1272,131,128,128,126,129,126,126,127,0
1277,123,127,129,130,125,126,127,126,0
1280,124,127,128,129,125,126,126,129,0
1284,130,129,126,126,127,128,128,128,0
1287,133,128,130,126,128,128,127,127,0
1290,125,127,128,129,126,127,127,126,0
1294,124,127,126,127,128,128,128,129,0
1297,130,128,125,127,128,128,129,129,0
1299,129,128,126,126,128,128,127,127,0
1303,126,126,130,128,127,128,128,128,0
1306,123,126,125,127,130,128,128,128,0
1314,129,129,127,128,129,128,128,128,0
1322,124,127,125,126,129,128,127,126,0
1326,123,127,127,129,126,126,128,126,0
1329,123,127,127,129,126,128,128,128,0
1332,133,129,126,127,128,127,127,128,0
1335,131,128,126,125,128,129,128,128,0
1338,128,127,127,127,128,128,127,127,0
1342,126,126,128,127,127,128,126,128,0
1346,129,129,127,127,127,128,127,128,0
1350,131,128,127,128,128,127,127,127,0
1354,119,126,128,130,126,126,127,126,0
1357,124,128,128,129,125,126,129,129,0
1359,132,128,127,127,129,127,128,128,0
1363,132,129,129,128,130,128,127,127,0
1366,125,125,129,128,129,127,127,126,0
1371,124,127,128,130,126,127,128,128,0
1374,128,130,127,127,129,128,128,128,0
1377,131,128,125,127,129,128,129,129,0
1380,123,125,129,129,126,127,128,127,0
1384,119,126,127,127,129,128,129,129,0
1387,131,129,125,126,128,128,129,129,0
1391,130,128,127,128,126,127,126,127,0
1394,129,127,126,127,129,128,127,128,0
1397,127,127,127,127,128,127,126,127,0
1399,127,128,128,128,127,127,128,129,0
1402,124,126,128,129,125,126,127,127,0
1406,126,128,128,129,126,126,127,126,0
1409,124,126,128,129,125,126,127,129,0
1412,131,128,128,127,129,128,128,128,0
1415,136,129,128,128,129,128,129,129,0
1420,129,127,126,127,128,128,127,127,0
1424,128,126,128,126,128,127,127,127,0
1428,128,127,129,128,129,128,127,128,0
1431,128,128,127,128,129,128,128,127,0
1434,124,127,127,128,127,127,127,126,0
1437,124,127,128,129,126,126,126,127,0
1439,123,127,127,126,128,128,128,129,0
1442,133,129,130,128,129,128,127,127,0
1445,131,126,127,128,129,128,126,127,0
1448,123,127,128,128,129,128,128,128,0
1451,127,128,127,128,127,128,126,128,0
1455,130,129,127,126,129,128,126,127,0
1458,126,128,130,129,125,128,126,128,0
1461,128,126,126,127,128,128,126,128,0
1464,129,127,126,127,129,128,126,128,0
1467,131,128,128,128,126,128,128,126,0
1469,126,128,127,130,126,126,127,126,0
1472,125,127,129,129,126,127,127,125,0
1475,125,128,127,127,129,128,128,128,0
1478,134,129,126,125,129,128,127,127,0
1481,132,126,129,128,128,128,129,126,0
1484,128,125,129,128,129,127,127,126,0
1487,123,125,128,127,129,128,127,128,0
1491,133,129,130,128,129,128,127,128,0
1508,122,127,127,128,129,128,128,125,0
1505,124,127,129,128,130,128,129,127,0
1511,124,127,128,130,126,127,127,127,0
1514,133,130,127,126,129,128,127,128,0
1517,132,128,128,128,127,128,128,127,0
1521,129,127,126,127,126,128,127,127,0
1527,128,127,130,128,129,128,128,129,0
1530,128,129,126,127,128,128,129,129,0
1534,128,127,127,129,125,126,127,126,0
1537,124,127,128,130,126,126,127,126,0
1541,123,128,128,129,127,128,128,129,0
1544,131,128,126,127,129,128,128,127,0
1547,132,128,126,128,129,127,128,127,0
1551,127,127,126,127,129,128,129,128,0
1554,125,126,127,127,127,128,129,129,0
1556,132,128,125,125,128,128,129,129,0
1559,130,127,126,127,128,127,127,128,0
1563,128,127,126,127,127,126,127,126,0
1567,124,127,127,129,125,126,127,127,0
1570,124,126,128,127,129,128,127,127,0
1572,134,129,128,127,129,127,126,126,0
1575,127,127,127,127,128,128,126,127,0
1578,123,127,127,127,127,128,126,127,0
1581,131,129,128,126,128,127,128,128,0
1584,124,128,127,128,127,128,128,128,0
1586,127,127,127,128,126,126,127,125,0
1589,124,127,128,129,126,126,127,127,0
1592,123,129,126,125,129,128,128,128,0
1595,130,127,126,128,130,128,129,129,0
1599,129,127,126,128,125,128,128,127,0
1604,130,126,130,128,130,127,128,128,0
1609,126,128,126,126,128,127,126,128,0
1616,133,128,129,128,127,127,127,128,0
1620,132,128,127,127,127,128,128,128,0
1626,126,126,128,130,125,127,127,125,0
1632,128,127,127,129,128,128,128,129,0
1636,133,128,126,126,128,128,128,128,0
1639,129,128,129,127,127,128,127,127,0
1643,126,126,126,128,125,126,127,126,0
1647,127,127,127,128,130,128,128,128,0
1650,131,128,127,128,130,128,129,129,0
1653,123,128,125,128,128,128,128,128,0
1657,125,127,130,129,126,127,126,126,0
1660,124,128,128,129,128,128,126,128,0
1664,131,128,126,126,129,128,129,128,0
1667,130,128,127,127,127,127,127,127,0
1671,123,126,127,129,126,126,127,127,0
1674,125,127,126,127,128,128,128,129,0
1678,132,129,126,127,128,128,127,127,0
1684,130,128,127,128,125,126,127,127,0
1687,122,124,128,128,129,129,128,128,0
1690,128,128,129,127,128,128,127,128,0
1693,130,129,129,128,128,127,126,128,0
1697,125,128,129,128,125,126,127,126,0
1701,123,128,127,129,127,126,127,126,0
1704,124,127,126,127,128,128,128,128,0
1707,131,129,126,125,128,128,129,128,0
1710,134,128,128,127,128,127,127,127,0
1714,130,126,130,127,130,128,127,128,0
1718,128,125,130,128,129,128,127,127,0
1721,130,128,127,126,129,128,129,128,0
1724,124,127,127,126,129,127,126,127,0
1730,129,127,131,129,127,128,127,125,0
1735,123,127,127,129,126,126,126,129,0
1738,130,128,126,127,128,128,129,129,0
1742,130,128,126,126,127,128,127,128,0
1745,127,124,129,129,126,126,127,126,0
1748,124,128,128,129,125,127,127,128,0
1751,133,129,127,125,129,128,128,129,0
1755,130,129,129,128,130,128,128,128,0
1758,128,127,126,125,128,128,127,127,0
1761,122,127,127,128,129,128,129,128,0
1764,132,129,128,127,128,128,126,127,0
1768,128,129,125,127,126,128,127,126,0
1772,125,128,128,129,127,126,127,126,0
1775,124,127,128,129,124,130,129,129,0
1778,133,128,126,127,128,128,128,129,0
1782,130,128,128,127,128,127,126,127,0
1785,130,125,130,128,128,128,126,126,0
1788,124,127,127,128,128,128,127,128,0
1791,130,130,128,127,129,128,126,128,0
1795,128,129,130,128,125,127,127,128,0
1798,131,126,128,129,125,127,127,125,0
1802,126,127,128,129,126,127,127,127,0
1807,132,129,128,126,128,128,127,128,0
1811,134,128,128,127,129,129,127,127,0
1814,130,126,130,128,127,127,128,127,0
1817,119,128,128,129,125,126,127,129,0
1823,130,128,126,126,127,127,129,129,0
1827,131,128,126,127,129,128,129,129,0
1832,124,126,126,126,128,128,127,126,0
1838,129,126,129,128,129,128,128,127,0
1842,129,128,130,128,128,128,126,128,0
1846,127,128,127,128,128,127,127,127,0
1849,124,128,128,126,126,128,127,127,0
1852,127,127,129,127,127,127,127,127,0
1855,131,128,128,128,129,127,129,128,0
1859,122,128,127,128,126,127,127,126,0
1862,126,129,128,130,126,125,128,127,0
1865,126,127,128,129,125,127,127,126,0
1869,125,127,127,126,128,128,129,128,0
1872,132,128,126,126,129,128,129,128,0
1875,130,128,127,125,128,127,127,128,0
1878,128,126,130,130,127,126,127,127,0
1881,122,128,125,127,129,128,128,128,0
1884,131,128,127,128,129,128,128,128,0
1887,129,128,129,126,124,126,128,128,0
1890,129,127,127,127,127,128,127,128,0
1893,127,127,129,128,128,128,127,127,0
1896,128,128,127,126,128,128,129,127,0
1900,133,128,128,127,127,127,128,126,0
1903,127,127,128,129,126,127,128,126,0
1906,125,128,127,128,129,128,128,129,0
1909,132,128,126,127,129,128,128,128,0
1911,133,128,129,127,126,127,127,127,0
1921,129,125,128,126,129,128,129,125,0
1929,132,129,128,128,129,127,126,128,0
1925,125,127,126,127,127,128,127,128,0
1933,130,128,129,128,128,127,126,128,0
1938,131,127,127,130,126,126,127,125,0
1945,125,128,128,129,125,127,126,128,0
1950,132,128,127,126,129,128,128,127,0
1955,132,128,128,127,129,127,126,127,0
1959,123,127,126,126,128,128,129,127,0
1962,131,126,130,128,127,128,126,128,0
1966,129,128,128,126,129,127,129,129,0
1969,121,128,128,128,128,127,128,127,0
1973,123,127,128,128,127,126,127,126,0
1976,125,127,127,129,125,126,127,127,0
1979,133,129,130,128,128,128,127,128,0
1983,126,129,127,127,129,129,128,128,0
1986,119,128,129,128,128,127,129,129,0
1989,125,127,127,128,128,128,128,128,0
1992,130,129,129,128,127,127,126,128,0
1996,131,129,127,127,128,127,127,127,0
1999,126,127,126,128,129,127,128,125,0
2001,128,127,127,130,125,126,127,126,0
2004,124,128,129,128,129,127,127,129,0
2007,128,128,126,127,126,128,128,127,0
2009,131,125,128,126,128,128,127,127,0
2012,129,126,130,128,123,128,129,128,0
2014,128,128,128,127,127,128,126,127,0
2018,132,129,129,127,126,127,127,128,0
2020,128,127,128,130,126,126,127,125,0
2024,125,127,128,129,125,126,127,126,0
2029,123,127,130,126,129,128,127,128,0
2033,132,128,126,126,129,127,129,130,0
2039,131,127,128,127,127,127,126,127,0
2046,116,126,127,129,125,127,127,127,0
2049,129,128,126,126,129,127,127,128,0
2053,134,129,127,127,127,128,127,128,0
2057,129,127,128,127,124,128,128,128,0
2059,123,127,127,129,126,126,127,127,0
2062,123,129,127,126,128,128,127,128,0
2066,131,128,126,127,128,128,128,128,0
2070,130,128,129,127,128,127,127,126,0
2075,123,128,127,129,125,126,127,127,0
2078,127,128,126,127,129,128,129,129,0
2081,131,129,130,128,129,128,127,127,0
2085,127,128,129,128,125,127,127,127,0
2088,120,125,127,128,127,127,126,127,0
2091,128,129,128,127,128,127,128,128,0
2094,129,130,127,126,129,128,127,128,0
2098,120,128,128,128,129,128,126,128,0
2101,128,127,127,128,126,127,128,128,0
2104,130,127,126,128,127,128,127,128,0
2108,131,129,126,127,127,128,128,128,0
2111,121,128,128,129,125,127,127,126,0
2115,125,127,129,129,126,126,127,126,0
2119,122,127,127,125,127,128,128,128,0
2122,133,129,127,127,130,128,128,128,0
2125,131,127,126,125,128,128,129,125,0
2128,125,127,127,127,126,127,127,127,0
2131,122,127,125,126,127,128,128,129,0
2135,133,128,126,126,128,127,127,128,0
2139,132,128,128,127,125,128,128,128,0
2144,119,126,126,128,130,127,128,128,0
2148,129,127,125,127,127,128,129,129,0
2153,126,128,127,127,126,128,129,129,0
2158,122,128,128,129,126,126,126,126,0
2161,127,127,127,129,126,127,128,126,0
2164,124,128,127,128,130,128,128,129,0
2168,134,128,127,126,128,128,127,129,0
2171,131,128,127,127,129,128,127,127,0
2176,126,128,128,126,127,127,128,126,0
2180,120,126,127,128,130,128,128,128,0
2183,131,128,126,126,129,128,128,128,0
2190,123,126,126,129,130,126,127,125,0
2187,129,126,126,128,129,127,126,127,0
2196,123,128,128,129,125,127,127,128,0
2200,130,128,128,127,129,127,127,127,0
2204,131,128,128,127,128,128,128,128,0
2207,123,126,126,128,128,128,126,127,0
2211,127,127,130,126,127,128,126,128,0
2214,127,128,128,126,129,127,128,129,0
2218,131,128,126,126,128,128,129,128,0
2222,129,127,127,128,125,127,128,128,0
2226,124,126,128,128,128,127,128,128,0
2229,126,128,128,130,123,126,126,128,0
2232,126,127,127,128,129,126,127,125,0
2236,129,128,128,129,127,127,127,126,0
2239,122,127,128,129,125,127,127,128,0
2242,132,127,128,125,129,128,127,128,0
2246,132,129,129,127,130,128,127,127,0
2249,130,126,130,127,130,128,127,127,0
2256,122,126,127,129,125,127,128,128,0
2260,129,128,129,128,130,128,127,128,0
2267,131,127,125,128,128,128,129,129,0
2270,126,127,126,127,127,127,129,126,0
2274,122,127,127,130,126,126,128,127,0
2277,126,128,126,125,128,128,128,129,0
2280,131,128,127,127,128,128,126,128,0
2283,125,128,127,127,129,129,128,128,0
2287,127,125,126,125,128,128,127,129,0
2290,125,128,125,127,128,128,129,130,0
2294,128,129,127,127,128,128,127,128,0
2298,125,128,127,127,126,128,126,127,0
2302,127,127,128,130,125,127,128,127,0
2306,126,128,127,126,128,128,128,128,0
2309,133,129,126,126,127,128,126,127,0
2312,126,127,129,128,129,127,127,126,0
2316,124,127,127,129,126,126,127,126,0
2319,123,127,129,126,129,128,127,128,0
2322,134,129,126,127,129,128,127,128,0
2326,133,126,129,126,129,128,127,127,0
2329,119,126,128,129,125,126,127,127,0
2332,123,125,130,125,129,128,128,128,0
2335,130,129,127,126,129,128,129,128,0
2339,130,128,127,127,128,127,126,127,0
2342,124,125,128,128,126,128,126,127,0
2345,125,128,130,126,129,128,129,129,0
2348,129,129,127,127,126,128,127,128,0
2351,128,127,128,128,129,127,127,127,0
2355,127,126,126,127,128,128,128,127,0
2358,123,127,126,126,129,127,129,128,0
2362,125,129,126,127,126,128,128,128,0
2364,127,128,127,127,126,126,128,125,0
2367,129,127,126,128,125,126,127,125,0
2373,126,128,127,129,126,127,128,128,0
2378,131,128,127,126,128,128,127,128,0
2382,131,128,128,126,128,128,127,128,0
2385,127,127,129,127,127,129,129,128,0
2388,126,127,126,127,128,128,128,129,0
2392,131,129,126,126,127,128,126,127,0
2395,132,128,128,128,126,127,127,126,0
2399,124,128,127,130,126,127,127,125,0
2402,123,126,128,129,125,130,130,129,0
2405,132,128,126,125,128,128,127,128,0
2408,130,128,127,125,129,128,128,128,0
2411,131,126,130,128,127,128,128,127,0
2415,122,125,130,126,128,127,127,128,0
2418,130,128,127,126,129,128,128,128,0
2423,125,127,127,129,128,128,126,127,0
2429,130,128,126,126,129,127,128,127,0
2433,122,125,128,129,126,126,127,127,0
2436,126,128,127,129,126,126,126,129,0
2439,131,128,125,125,129,128,128,128,0
2443,130,127,127,125,130,128,129,127,0
2446,131,127,128,128,125,126,127,127,0
2450,122,128,126,127,129,128,129,129,0
2452,130,129,126,127,128,127,127,128,0
2457,124,127,126,127,128,128,129,128,0
2460,125,126,129,128,128,127,127,127,0
2464,128,128,128,128,124,128,127,129,0
2467,121,127,127,126,129,127,127,128,0
2470,131,128,126,127,128,128,128,128,0
2474,127,126,127,127,128,126,127,126,0
2478,128,128,128,129,125,126,127,127,0
2483,128,128,128,129,126,127,128,126,0
2489,126,127,128,129,127,127,131,128,0
2492,126,127,127,128,127,128,127,128,0
2495,134,128,128,125,129,129,127,128,0
2498,131,129,126,125,129,127,129,129,0
2502,127,127,127,127,127,127,127,126,0
2505,122,126,127,129,127,127,127,127,0
2508,133,129,130,126,129,128,128,128,0
2511,132,128,129,128,130,128,128,129,0
2515,128,127,126,127,127,128,127,127,0
2518,118,127,127,129,125,127,127,126,0
2524,125,125,130,127,128,128,127,127,0
2527,132,128,129,128,130,128,128,127,0
2530,130,128,130,128,130,128,127,127,0
2533,130,125,130,128,125,128,128,127,0
2536,131,128,129,127,128,128,126,127,0
2540,130,129,128,126,130,128,127,128,0
2543,124,129,128,127,129,126,128,128,0
2547,126,126,129,130,125,126,127,126,0
2551,124,128,128,128,124,126,128,129,0
2554,132,129,125,126,129,128,128,128,0
2557,131,127,127,127,125,128,126,127,0
2561,130,128,128,130,126,126,127,126,0
2564,123,128,127,129,127,127,127,128,0
2567,130,128,126,125,129,128,128,128,0
2572,130,128,126,128,127,128,128,128,0
2575,129,127,129,128,129,128,126,128,0
2578,125,127,127,126,128,128,128,129,0
2582,131,128,127,127,128,128,126,128,0
2588,125,129,127,127,128,127,127,127,0
2591,127,128,128,128,127,127,128,125,0
2595,127,128,129,129,126,126,127,128,0
2598,132,129,130,126,129,128,128,127,0
2601,126,128,129,128,129,128,129,126,0
2605,123,127,128,129,125,126,127,125,0
2608,123,127,128,127,128,128,128,129,0
2611,131,128,126,125,128,129,128,128,0
2614,133,128,130,126,128,128,126,127,0
2618,127,128,126,128,129,128,129,128,0
2621,124,126,126,128,129,128,127,128,0
2624,131,128,127,128,128,129,128,128,0
2627,130,128,126,128,127,127,127,126,0
2630,123,129,128,129,125,127,127,126,0
2634,123,128,127,129,128,129,127,128,0
2639,132,129,127,127,129,128,127,128,0
2642,133,128,127,128,130,128,129,128,0
2645,132,127,131,128,127,127,127,127,0
2648,126,127,128,126,129,128,128,128,0
2651,129,128,127,128,127,128,127,128,0
2654,125,127,127,126,129,128,129,128,0
2658,120,128,127,129,125,127,127,126,0
2661,124,127,127,129,125,127,126,127,0
2664,133,128,128,127,128,128,127,127,0
2667,133,128,128,128,128,128,128,128,0
2670,122,128,128,129,127,127,127,128,0
2672,126,126,127,127,128,128,127,128,0
2676,127,128,126,127,128,128,129,129,0
2679,131,128,127,126,126,128,128,128,0
2683,129,127,128,128,127,127,128,128,0
2686,122,126,127,126,125,127,127,127,0
2692,127,128,128,129,125,126,127,126,0
2696,127,128,128,129,126,127,127,126,0
2699,126,128,128,128,127,127,128,127,0
2704,125,126,127,128,127,128,128,128,0
2707,133,129,129,128,128,128,129,129,0
2710,132,129,129,127,130,128,127,128,0
2714,128,126,128,128,130,127,127,127,0
2716,124,127,128,128,129,128,128,127,0
2719,130,128,128,127,128,127,127,128,0
2723,133,128,128,129,128,127,127,127,0
2726,133,127,128,128,130,127,127,127,0
2730,126,129,128,129,126,126,127,126,0
2733,124,127,127,128,129,128,128,129,0
2736,130,129,127,127,127,128,131,129,0
2740,127,127,127,127,128,128,129,128,0
2742,121,125,128,128,128,128,128,128,0
2746,127,127,127,126,129,128,129,129,0
2749,124,128,126,126,129,127,128,128,0
2753,129,127,128,130,125,126,128,126,0
2756,125,127,128,129,125,127,127,126,0
2760,125,127,126,127,128,128,127,128,0
2763,133,128,127,125,128,127,127,128,0
2767,131,128,128,127,128,127,127,127,0
2771,128,125,130,128,130,127,128,126,0
2775,123,127,127,128,129,127,128,128,0
2779,134,129,129,126,130,128,127,128,0
2783,128,128,129,128,129,128,129,127,0
2786,129,128,129,128,125,127,128,126,0
2789,123,127,127,129,128,129,127,128,0
2793,132,129,127,127,129,128,127,129,0
2800,129,128,127,125,127,127,129,127,0
2807,131,127,127,128,129,128,127,128,0
2811,121,127,126,128,128,128,127,129,0
2814,128,129,127,127,127,127,126,128,0
2817,132,128,126,127,126,128,127,128,0
2828,129,127,126,129,125,127,127,126,0
2831,124,127,128,129,125,127,126,127,0
2835,130,128,127,126,128,128,128,128,0
2838,132,128,126,127,128,129,128,128,0
2842,119,128,126,127,129,128,128,127,0
2845,124,127,127,128,129,128,127,128,0
2848,129,129,125,128,127,128,128,127,0
2851,131,128,127,126,128,127,127,127,0
2855,129,126,126,126,128,128,128,128,0
2858,118,127,128,127,125,128,127,128,0
2862,132,129,129,128,129,128,128,127,0
2865,122,129,126,130,126,126,127,125,0
2867,126,127,127,129,127,127,128,126,0
2870,123,127,128,129,126,127,127,128,0
2874,132,127,127,125,129,128,128,128,0
2877,134,128,127,127,130,129,129,128,0
2880,129,127,130,128,129,128,127,128,0
2883,126,126,127,129,126,126,126,128,0
2888,132,128,127,127,128,127,127,127,0
2891,132,129,128,127,128,128,127,128,0
2895,131,126,127,126,128,128,127,127,0
2898,119,125,127,128,129,126,128,128,0
2900,131,129,127,126,128,127,127,127,0
2905,130,129,128,128,127,127,126,127,0
2909,128,128,127,127,126,128,128,127,0
2913,118,128,127,130,125,126,127,126,0
2919,123,127,126,128,129,128,128,129,0
2925,131,128,126,126,129,128,129,128,0
2929,120,129,129,128,126,127,127,127,0
2931,123,128,128,129,125,126,127,127,0
2934,125,129,127,127,129,128,128,129,0
2938,131,129,126,127,128,127,128,128,0
2940,129,128,127,127,127,127,127,125,0
2944,129,127,127,127,126,128,130,128,0
2947,129,128,130,128,128,128,127,128,0
2950,131,128,127,126,129,128,129,128,0
2953,121,128,127,128,125,126,128,126,0
2956,125,128,129,129,125,126,128,126,0
2959,125,127,127,127,130,128,129,129,0
2962,132,128,126,126,129,128,129,129,0
2965,129,128,127,127,127,128,127,128,0
2969,128,125,129,130,126,126,128,126,0
2972,123,127,127,128,130,129,128,128,0
2975,130,129,127,127,128,128,128,128,0
2980,132,128,128,126,129,129,129,125,0
2984,124,127,126,125,128,128,127,127,0
2988,128,126,126,126,126,128,128,129,0
2991,131,128,126,127,127,128,128,128,0
2994,126,127,127,129,128,128,128,126,0
2997,125,127,127,130,126,126,127,125,0
3001,123,128,127,129,127,128,127,129,0
3004,132,129,127,125,129,128,126,128,0
3007,129,128,129,128,129,127,129,125,0
3010,122,127,128,126,129,127,129,128,0
3012,123,127,126,129,128,128,129,129,0
3022,131,128,127,128,126,128,128,128,0
3027,133,128,126,128,125,128,127,125,0
3030,126,127,128,130,126,127,127,126,0
3035,123,127,127,127,130,129,128,127,0
3038,133,129,128,127,129,128,126,128,0
3042,133,128,126,128,130,128,128,127,0
3046,125,126,129,128,129,129,127,128,0
3049,126,127,127,128,129,128,129,129,0
3052,131,128,127,127,128,128,127,127,0
3056,126,128,127,127,128,128,128,128,0
3059,128,126,127,126,129,126,127,125,0
3063,126,127,128,129,126,126,127,127,0
3067,122,127,131,126,129,128,127,128,0
3071,133,128,129,128,129,128,127,127,0
3074,129,127,126,126,128,128,131,127,0
3076,127,126,129,128,125,128,127,128,0
3079,127,129,128,125,130,128,128,128,0
3084,127,129,127,128,127,128,127,128,0
3087,120,128,129,129,126,127,128,125,0
3091,124,127,128,129,125,126,127,127,0
3094,132,128,127,126,128,128,127,128,0
3098,131,128,129,127,130,128,127,128,0
3102,128,126,130,128,130,128,129,128,0
3106,118,126,128,127,128,127,127,128,0
3109,126,128,128,127,126,127,126,128,0
3112,130,128,128,128,126,128,128,128,0
3116,126,125,127,128,128,127,128,128,0
3119,125,127,128,129,127,126,127,125,0
3123,124,128,127,129,127,128,127,128,0
3132,135,128,128,127,128,127,127,129,0
3138,127,128,131,129,126,128,127,127,0
3142,128,127,127,128,129,128,128,128,0
3161,130,128,126,128,125,127,127,128,0
3147,126,128,125,126,128,128,128,129,0
3164,130,127,128,126,130,128,127,125,0
3168,124,128,128,129,126,126,128,125,0
3172,125,127,128,129,127,128,127,128,0
3176,132,128,126,128,129,128,129,128,0
3180,130,128,127,127,127,128,129,128,0
3184,128,126,128,129,126,126,128,126,0
3188,124,127,127,128,129,129,128,128,0
3192,131,128,126,125,128,128,128,128,0
3196,129,128,130,126,129,127,127,127,0
3199,125,126,127,129,126,126,128,127,0
3202,121,126,125,125,130,128,128,129,0
3206,132,129,127,127,129,128,128,128,0
3209,127,128,127,127,131,128,127,127,0
3212,122,125,128,128,128,128,126,127,0
3215,128,126,129,127,129,128,127,129,0
3218,130,129,127,126,129,128,129,129,0
3222,131,128,127,129,125,126,127,125,0
3227,125,128,128,129,126,126,127,126,0
3230,124,127,127,126,129,127,127,129,0
3232,132,129,127,127,129,128,128,128,0
3236,130,128,127,127,129,128,129,128,0
3239,125,127,126,125,128,130,126,127,0
3242,127,127,126,127,127,128,129,129,0
3246,128,129,126,127,128,128,129,129,0
3249,130,128,127,126,124,127,128,128,0
3252,131,127,127,128,127,126,127,126,0
3256,125,127,128,129,126,126,127,127,0
3259,126,129,127,126,129,128,127,127,0
3265,133,128,130,126,129,128,128,127,0
3268,125,127,128,128,129,128,127,127,0
3273,120,126,127,127,126,128,129,129,0
3278,129,127,127,128,128,128,126,127,0
3283,131,128,129,129,126,127,127,127,0
3288,130,127,130,130,125,126,127,125,0
3295,124,128,129,130,125,126,128,127,0
3299,123,129,128,127,128,128,126,127,0
3302,132,129,131,128,128,127,127,127,0
3306,127,127,127,128,131,126,127,126,0
3309,121,127,127,129,126,126,126,128,0
3312,134,128,127,127,129,128,127,128,0
3315,134,128,127,126,129,128,129,127,0
3318,128,127,127,127,128,127,130,127,0
3321,125,126,127,129,126,127,127,127,0
3326,132,129,128,127,128,128,128,128,0
3329,130,127,127,128,129,126,126,127,0
3333,126,124,128,128,126,128,126,127,0
3336,126,127,127,128,128,128,127,127,0
3339,128,128,126,127,128,128,126,127,0
3342,129,128,129,128,126,126,126,125,0
3346,126,127,128,129,126,126,127,126,0
3349,125,127,128,129,126,127,129,128,0
3352,131,127,125,125,129,128,128,128,0
3357,131,129,127,126,130,129,129,128,0
3360,132,128,128,128,128,128,127,127,0
3364,129,125,130,128,129,128,128,128,0
3367,124,128,126,127,128,128,129,129,0
3371,130,128,126,127,127,127,127,129,0
3374,128,128,127,127,128,128,128,128,0
3377,128,126,129,130,126,127,127,126,0
3380,124,128,127,128,127,128,128,128,0
3383,130,129,126,127,128,128,128,128,0
3386,121,126,127,127,125,128,129,128,0
3391,127,126,127,127,129,128,128,128,0
3397,131,128,127,128,129,127,126,128,0
3401,130,128,127,126,129,128,126,127,0
3404,131,125,128,130,126,126,127,126,0
3408,124,128,127,128,126,127,127,126,0
3411,124,128,127,128,129,128,128,129,0
3414,133,129,126,125,128,128,126,127,0
3418,131,128,128,127,129,128,127,127,0
3421,125,127,127,128,129,129,127,127,0
3423,126,126,126,127,129,127,129,129,0
3432,131,128,126,127,128,127,128,129,0
3435,126,127,127,127,129,128,129,128,0
3438,125,125,130,129,126,126,128,126,0
3441,125,127,127,130,125,126,128,128,0
3445,134,129,128,127,129,128,127,128,0
3449,126,128,129,128,130,128,126,128,0
3453,124,126,127,127,128,128,126,127,0
3457,126,127,127,127,128,128,127,128,0
3460,130,129,128,128,128,128,125,127,0
3463,132,128,127,127,127,128,127,128,0
3467,130,127,127,127,128,126,128,126,0
3470,122,126,129,129,125,126,127,127,0
3473,127,128,128,126,128,127,126,127,0
3477,132,128,128,126,128,127,128,127,0
3480,128,127,126,128,129,127,129,125,0
3484,121,127,128,129,125,127,127,129,0
3487,131,129,127,125,129,128,129,128,0
3490,132,127,126,127,128,128,127,127,0
3493,125,127,126,127,129,128,129,128,0
3496,128,127,131,126,125,127,127,127,0
3499,132,129,129,128,127,127,126,127,0
3502,131,128,128,127,126,127,128,128,0
3506,129,126,127,130,126,126,127,125,0
3511,124,127,127,129,126,127,127,128,0
3514,131,129,128,127,128,129,127,128,0
3517,133,129,130,127,129,128,128,128,0
3520,127,127,128,129,125,128,128,128,0
3523,130,127,128,125,129,128,128,128,0
3527,129,128,130,127,129,128,128,128,0
3530,129,127,126,127,128,128,127,129,0
3534,130,127,128,130,125,126,127,127,0
3537,124,128,128,129,125,126,127,128,0
3539,127,128,129,126,129,128,128,129,0
3544,129,128,126,127,129,128,129,128,0
3548,125,127,128,129,125,127,127,126,0
3551,123,127,128,129,125,126,127,128,0
3554,133,127,126,125,128,128,128,128,0
3557,133,128,127,127,128,128,127,127,0
3561,132,129,127,127,128,127,127,128,0
3563,121,127,130,128,129,128,128,127,0
3567,130,127,127,128,129,127,128,128,0
3571,127,128,126,128,128,128,129,128,0
3576,121,127,128,130,125,127,127,126,0
3579,124,127,128,129,126,126,127,128,0
3582,130,128,126,127,128,128,127,128,0
3586,133,129,127,127,129,127,128,128,0
3590,131,128,130,128,129,128,129,128,0
3594,120,127,128,130,126,127,128,126,0
3597,125,125,130,128,129,128,128,129,0
3602,132,130,128,126,129,128,127,128,0
3605,128,128,126,128,124,127,126,127,0
3608,128,126,127,126,128,128,129,128,0
3611,126,127,127,127,127,127,127,128,0
3615,131,129,130,127,128,127,127,128,0
3620,131,128,127,127,129,128,128,128,0
3624,129,127,127,127,128,126,127,126,0
3628,125,127,127,129,123,128,129,129,0
3631,130,129,126,127,127,128,128,128,0
3634,125,127,128,128,128,128,126,126,0
3638,124,128,127,129,126,126,127,126,0
3641,123,127,127,128,128,127,127,128,0
3644,134,129,127,127,129,128,128,127,0
3647,131,128,128,126,129,128,128,128,0
3650,122,127,126,127,128,128,127,126,0
3654,123,127,127,129,124,128,128,128,0
3657,133,128,128,126,128,127,128,128,0
3660,128,128,129,127,128,128,127,126,0
3663,132,127,130,128,129,128,126,127,0
3666,129,126,128,127,126,128,126,127,0
3669,133,128,128,127,127,128,126,128,0
3672,125,129,126,127,127,127,128,126,0
3675,125,127,128,129,126,127,128,125,0
3678,124,127,127,129,126,127,129,128,0
3681,133,129,126,127,128,128,127,128,0
3685,133,128,128,128,130,129,128,129,0
3688,126,126,126,128,126,128,128,127,0
3690,127,126,128,128,129,127,127,128,0
3694,127,128,127,128,129,128,129,129,0
3698,125,129,127,128,127,127,126,126,0
3703,123,127,127,130,126,126,127,126,0
3707,124,127,128,129,126,128,127,127,0
3709,131,129,126,126,129,127,128,128,0
3713,131,128,126,126,128,127,131,125,0
3717,120,124,129,127,129,127,127,127,0
3720,124,126,126,127,128,128,126,128,0
3724,131,128,129,127,129,128,128,128,0
3736,125,128,129,127,126,127,128,127,0
3743,124,127,128,127,125,128,128,127,0
3748,122,126,126,126,128,128,128,129,0
3752,128,129,128,128,126,128,127,127,0
3755,129,128,129,128,126,126,127,126,0
3759,127,129,128,129,126,126,127,126,0
3762,124,127,128,128,126,127,128,126,0
3766,124,128,129,125,129,129,127,127,0
3769,133,129,130,128,128,128,127,128,0
3772,127,127,126,125,128,128,127,128,0
3776,130,126,128,126,128,127,127,127,0
3781,133,128,128,127,129,128,126,127,0
3783,131,128,126,127,127,127,127,128,0
3786,128,127,127,126,128,127,127,126,0
3789,123,128,128,129,125,126,128,126,0
3792,121,128,128,127,128,127,126,128,0
3795,132,129,128,127,129,128,126,127,0
3798,129,126,130,128,123,128,128,127,0
3801,128,127,129,126,130,127,129,125,0
3804,121,127,126,127,129,128,129,129,0
3807,129,128,127,127,126,128,127,129,0
3810,133,127,128,129,126,126,126,126,0
3813,125,128,128,129,126,127,128,128,0
3817,132,128,128,126,128,128,128,129,0
3820,131,129,127,127,128,128,128,128,0
3823,130,127,127,127,127,128,128,128,0
3826,128,128,128,129,126,127,127,126,0
3830,125,127,127,126,129,129,129,129,0
3834,131,129,126,126,129,128,128,128,0
3838,133,127,128,126,126,128,126,128,0
3841,125,127,129,128,125,127,127,127,0
3843,124,127,128,128,127,128,127,128,0
3847,133,129,128,127,128,128,127,128,0
3851,129,128,127,128,129,128,128,128,0
3859,126,127,126,128,125,126,127,126,0
3864,123,127,128,129,125,128,129,129,0
3868,134,128,127,127,128,128,127,127,0
3871,129,128,127,128,129,127,128,128,0
3873,121,125,128,127,129,127,127,126,0
3877,124,127,128,129,125,126,126,128,0
3881,133,129,128,127,129,128,128,128,0
3884,130,128,127,127,128,127,127,127,0
3887,125,126,128,127,127,128,127,128,0
3891,127,127,126,128,127,128,127,128,0
3895,133,128,129,128,128,128,127,128,0
3900,128,128,127,126,129,128,126,127,0
3903,126,127,127,129,126,127,128,126,0
3908,125,128,129,129,126,127,126,129,0
3911,131,128,126,125,128,129,128,128,0
3914,131,128,126,127,129,128,128,128,0
3918,131,126,130,128,127,128,128,128,0
3921,116,126,128,129,129,128,128,129,0
3924,130,129,127,127,128,128,129,129,0
3927,126,127,126,127,127,127,128,128,0
3930,128,126,127,126,125,126,127,127,0
3934,125,127,127,129,125,126,126,129,0
3937,132,129,127,125,129,128,128,128,0
3939,133,128,127,127,129,128,127,128,0
3942,126,127,126,128,129,128,127,125,0
3945,117,127,130,128,128,127,127,128,0
3950,125,127,126,128,129,128,129,128,0
3954,132,128,128,127,127,128,126,127,0
3957,131,127,128,128,129,128,128,127,0
3960,125,127,129,130,125,127,127,126,0
3963,123,128,127,129,126,127,126,127,0
3969,123,128,126,127,130,128,129,128,0
3975,127,127,126,125,129,128,129,128,0
3978,118,126,128,129,126,127,127,128,0
3980,132,128,128,126,128,128,129,129,0
3983,132,128,125,127,127,128,129,128,0
3988,131,125,128,126,130,128,128,127,0
3991,126,126,126,127,129,127,127,128,0
3994,126,129,130,126,128,128,128,128,0
3997,128,128,126,126,128,127,127,128,0
4000,124,128,127,125,126,127,127,127,0
4003,124,127,127,126,127,127,125,127,0
4008,130,128,128,128,128,128,127,128,0
4011,131,128,126,127,128,128,127,128,0
4013,129,127,129,129,125,126,128,125,0
4016,129,127,127,129,126,127,127,126,0
4025,124,127,127,127,129,128,128,128,0
4029,133,129,128,127,129,128,128,129,0
4031,125,127,126,127,129,129,129,128,0
4036,122,127,127,127,128,128,130,127,0
4039,119,127,127,126,127,127,127,127,0
4044,132,129,129,126,129,128,129,128,0
4047,122,126,127,128,129,128,129,127,0
4050,129,128,130,130,127,126,128,127,0
4054,124,127,127,129,126,128,126,128,0
4057,130,129,126,128,129,128,129,129,0
4059,128,128,126,127,127,127,129,128,0
4063,130,127,128,128,124,127,129,128,0
4067,129,128,127,126,128,128,126,128,0
4071,131,129,127,126,129,128,129,128,0
4075,131,127,128,130,125,126,127,125,0
4078,125,128,128,130,126,126,127,125,0
4082,126,128,127,129,129,128,127,128,0
4087,133,129,126,127,131,128,128,128,0
4091,130,128,126,125,127,128,127,127,0
4095,128,126,128,127,130,127,127,127,0
4097,128,125,127,127,129,128,128,129,0
4106,129,128,128,128,128,127,128,128,0
4110,127,128,127,127,127,127,127,128,0
4113,128,127,128,129,126,127,127,126,0
4117,124,127,128,129,125,127,129,129,0
4120,132,129,126,125,129,128,128,128,0
4123,131,128,127,127,127,127,125,125,0
4126,126,125,128,128,128,130,129,128,0
4129,130,128,131,129,125,127,128,128,0
4142,133,130,128,127,129,128,127,127,0
4147,129,129,129,128,126,128,126,127,0
4151,131,127,128,129,126,126,127,125,0
4154,125,128,127,129,126,127,125,128,0
4157,133,129,129,127,129,128,128,129,0
4161,133,128,126,127,128,128,128,128,0
4164,127,127,127,128,129,128,127,128,0
4167,126,123,127,128,129,128,129,128,0
4170,131,128,127,127,128,128,126,128,0
4174,128,129,128,129,127,128,128,127,0
4177,120,125,128,129,126,126,127,126,0
4182,124,127,128,129,126,126,126,129,0
4185,134,128,127,125,128,128,127,128,0
4189,132,128,127,127,129,128,128,127,0
4192,129,127,127,126,129,127,131,128,0
4194,128,125,126,125,127,127,128,128,0
4199,132,128,126,126,127,128,126,128,0
4207,127,129,129,128,128,128,126,127,0
4212,128,127,128,130,125,126,127,126,0
4215,125,127,128,129,125,126,127,126,0
4219,123,127,126,125,128,128,128,128,0
4222,132,129,128,125,129,128,127,128,0
4225,128,127,126,128,129,130,127,127,0
4228,125,125,128,126,129,128,128,128,0
4238,125,128,126,127,128,128,127,129,0
4241,129,129,125,127,126,127,128,128,0
4245,119,128,127,128,128,128,128,125,0
4248,123,127,128,130,126,126,127,127,0
4251,122,126,129,128,129,129,127,128,0
4254,132,128,127,126,128,127,128,128,0
4258,128,127,127,128,125,127,127,126,0
4261,122,126,127,129,126,127,127,128,0
4266,127,128,127,126,128,128,127,129,0
4270,135,130,128,126,129,127,127,128,0
4274,128,128,130,128,129,127,128,127,0
4279,127,126,128,129,127,127,126,127,0
4282,128,128,128,126,129,128,126,129,0
4286,131,129,127,126,127,128,128,128,0
4288,127,128,127,127,128,128,127,126,0
4291,130,126,128,128,127,129,128,126,0
4294,123,129,127,129,125,126,127,126,0
4297,126,129,126,127,126,127,128,129,0
4300,122,129,128,128,128,128,127,128,0
4314,129,128,127,127,127,128,128,128,0
4318,120,125,128,129,125,127,127,127,0
4322,125,128,128,126,129,128,128,128,0
4325,131,128,126,127,126,128,129,128,0
4329,122,128,130,128,129,127,127,127,0
4333,131,127,128,127,126,127,127,128,0
4338,134,129,129,128,127,127,127,128,0
4343,131,127,127,126,129,128,127,126,0
4347,126,128,127,129,126,127,128,125,0
4351,124,127,127,130,126,127,128,129,0
4355,132,128,126,125,129,128,129,128,0
4359,134,127,126,125,128,128,127,127,0
4363,130,126,127,128,129,128,127,127,0
4367,124,126,129,128,128,127,128,129,0
4370,125,129,126,126,128,128,127,128,0
4374,130,128,127,128,128,127,128,127,0
4377,121,127,127,128,128,128,127,125,0
4380,123,128,129,129,125,126,127,127,0
4384,126,128,126,126,128,128,128,128,0
4438,129,129,127,126,127,128,127,127,0
4449,132,128,130,128,129,129,128,128,0
4454,128,127,128,126,129,128,129,128,0
4457,127,128,126,127,127,127,129,128,0
4461,124,127,127,127,128,127,128,128,0
4505,121,128,127,129,126,126,128,125,0
4515,124,127,127,129,125,127,128,127,0
4524,127,127,130,125,129,128,128,127,0
4571,131,128,127,126,128,128,130,128,0
4582,130,127,127,127,128,128,128,127,0
4592,121,126,128,129,125,127,127,127,0
4597,133,129,130,128,129,128,127,128,0
4602,133,129,129,127,129,128,128,128,0
4638,125,128,128,128,129,128,129,128,0
4645,120,125,129,128,128,128,129,128,0
4654,129,129,128,128,126,128,126,128,0
4659,129,128,126,127,126,127,128,128,0
4664,126,126,126,127,127,128,129,128,0
4668,130,126,127,128,126,127,127,126,0
4671,125,127,127,129,125,126,128,127,0
4674,127,128,127,128,128,127,127,128,0
4678,130,128,127,125,129,128,128,128,0
4685,122,127,125,125,130,128,129,129,0
4682,129,124,127,127,132,127,127,127,0
4688,132,128,126,127,127,127,128,128,0
4692,125,127,127,128,128,128,128,128,0
4695,118,127,127,128,126,127,127,128,0
4699,128,128,128,128,128,127,127,128,0
4702,129,129,128,128,128,127,127,127,0
4705,131,127,128,129,125,126,127,125,0
4708,126,128,128,129,125,126,127,127,0
4712,123,127,126,127,129,128,129,129,0
4715,131,129,127,127,128,128,128,126,0
4719,129,127,128,128,129,127,128,127,0
4722,130,124,128,126,125,128,127,127,0
4726,125,128,128,127,128,128,127,128,0
4729,130,129,130,128,127,127,127,128,0
4732,125,129,131,130,126,126,127,126,0
4736,123,128,128,129,125,127,127,126,0
4740,124,126,127,126,128,128,128,129,0
4743,134,129,127,127,128,128,127,128,0
4747,133,128,128,127,128,128,126,127,0
4750,125,125,128,126,129,128,126,125,0
4754,121,125,128,128,127,128,129,129,0
4757,134,129,128,128,129,128,127,128,0
4761,131,128,131,126,129,127,128,127,0
4766,126,127,129,126,129,128,129,127,0
4772,123,127,128,128,129,128,127,128,0
4775,128,128,127,128,128,128,129,128,0
4778,131,129,128,128,123,127,127,125,0
4780,125,127,129,129,125,126,127,125,0
4783,124,127,128,129,126,127,129,129,0
4787,132,129,126,125,129,128,127,127,0
4789,132,128,129,128,129,128,129,128,0
4792,126,126,128,129,126,128,129,128,0
4796,118,124,128,129,128,127,126,128,0
4799,131,129,126,127,128,128,128,128,0
4802,133,128,128,128,127,127,126,127,0
4805,130,126,128,126,127,127,127,128,0
4808,127,127,129,128,126,128,126,128,0
4811,133,129,129,128,128,127,125,127,0
4814,134,128,128,128,128,127,127,127,0
4818,132,126,128,129,125,126,127,126,0
4820,122,128,128,128,124,126,127,126,0
4823,124,128,126,126,129,128,126,127,0
4826,130,128,126,127,129,128,129,128,0
4831,127,125,127,127,128,128,129,128,0
4834,123,124,129,127,129,128,128,128,0
4838,130,127,127,127,128,128,126,127,0
4841,130,129,129,127,128,127,127,127,0
4844,128,128,128,128,128,127,127,127,0
4847,121,128,129,129,126,126,127,126,0
4850,126,127,127,128,130,128,128,128,0
4853,131,128,126,127,127,127,126,127,0
4856,131,128,127,129,123,128,129,128,0
4861,126,125,128,129,126,127,127,126,0
4865,126,128,126,128,130,128,127,128,0
4870,132,128,126,125,129,128,129,129,0
4875,127,127,126,127,127,127,126,127,0
4878,126,126,126,128,129,128,129,129,0
4881,126,128,125,127,127,128,129,129,0
4884,130,128,126,128,126,127,128,125,0
4887,122,125,128,129,126,127,127,126,0
4889,126,127,129,129,126,126,128,127,0
4892,121,128,127,125,129,128,128,129,0
4898,132,128,126,125,128,128,128,128,0
4902,134,128,128,127,129,127,126,128,0
4909,122,127,127,127,128,127,130,128,0
4912,132,128,128,128,128,128,126,128,0
4916,128,129,128,128,126,127,127,128,0
4968,131,126,127,128,124,127,127,126,0
4980,124,127,128,129,126,126,127,126,0
4991,124,127,127,128,130,128,128,129,0
4997,131,128,127,127,129,128,129,129,0
5003,130,129,127,126,129,128,128,128,0
5008,129,127,126,127,126,127,127,128,0
5013,124,127,127,126,128,128,129,129,0
5016,126,129,126,127,127,128,129,129,0
5020,127,127,128,129,126,126,128,127,0
5023,124,127,128,130,126,127,127,126,0
5026,121,126,128,127,128,128,127,128,0
5029,132,129,129,126,128,128,126,127,0
5033,130,128,130,128,129,128,128,126,0
5037,128,126,131,129,126,129,129,127,0
5040,124,127,129,128,129,128,128,129,0
5044,131,128,126,127,128,128,129,129,0
5048,127,128,127,128,129,128,129,128,0
5052,129,127,127,126,128,127,128,127,0
5057,124,126,128,130,125,127,127,128,0
5061,125,126,129,127,129,128,126,128,0
5063,131,128,127,128,129,128,129,128,0
5066,122,127,126,128,128,128,127,127,0
5070,123,127,126,127,127,128,129,128,0
5073,129,129,127,127,128,128,126,128,0
5076,124,129,127,127,128,128,127,126,0
5079,128,127,128,129,125,126,127,126,0
5082,125,128,128,128,125,126,128,127,0
5084,133,129,127,127,129,128,129,129,0
5087,131,128,129,127,131,128,127,128,0
5090,127,127,126,125,129,129,129,128,0
5092,125,126,127,127,128,127,126,127,0
5097,132,129,128,127,128,128,127,128,0
5100,125,128,129,129,130,128,128,127,0
5103,125,128,129,128,126,127,127,126,0
5107,123,128,128,128,125,126,127,127,0
5110,123,127,128,128,129,128,128,127,0
5114,134,129,128,126,129,128,127,127,0
5117,127,127,126,127,127,128,129,127,0
5120,122,126,126,126,129,128,127,128,0
5125,128,128,125,127,128,128,129,129,0
5128,130,128,126,129,125,128,129,128,0
5130,131,126,127,128,128,127,128,127,0
5133,124,127,128,130,126,127,127,127,0
5167,123,127,125,128,130,128,127,128,0
5180,131,129,127,127,129,128,127,128,0
5188,122,126,127,127,126,129,128,128,0
5197,129,124,129,128,130,128,128,128,0
5209,122,129,127,126,128,128,129,129,0
5236,126,129,126,127,125,128,126,127,0
5246,129,128,128,127,127,128,126,128,0
5255,127,125,126,127,128,128,126,128,0
5261,130,128,129,128,127,128,127,128,0
5268,127,128,129,128,128,128,127,128,0
5275,121,128,129,129,126,127,127,125,0
5280,130,127,127,129,126,126,127,126,0
5286,126,127,127,126,129,128,129,129,0
5293,133,129,126,127,129,128,127,128,0
5297,130,126,130,127,129,128,126,127,0
5300,118,126,127,125,126,127,127,127,0
5305,120,126,130,128,129,127,127,128,0
5308,130,129,127,128,129,128,128,128,0
5311,125,128,127,128,129,127,127,126,0
5315,125,127,127,129,126,126,127,127,0
5318,119,126,127,126,128,128,128,129,0
5321,133,129,127,127,128,127,127,127,0
5325,132,128,130,126,128,128,126,127,0
5328,122,127,127,127,129,127,127,127,0
5331,123,127,128,129,128,128,126,127,0
5335,133,129,130,128,128,127,127,127,0
5338,129,128,129,128,129,128,127,126,0
5341,123,127,128,130,126,126,128,126,0
5344,119,127,127,127,128,128,127,129,0
5348,132,128,127,127,128,128,128,128,0
5351,130,128,126,126,127,127,126,125,0
5354,127,127,129,128,125,127,127,127,0
5357,125,127,128,128,129,128,128,128,0
5362,127,128,127,128,128,128,128,128,0
5365,128,128,126,127,126,126,126,127,0
5369,128,127,127,129,125,126,127,126,0
5376,124,127,127,129,126,127,127,129,0
5379,129,130,126,127,129,128,129,129,0
5382,129,128,126,127,128,127,126,128,0
5385,126,126,128,128,128,128,128,128,0
5388,122,127,129,128,129,128,127,128,0
5391,129,129,128,126,129,127,128,128,0
5394,125,128,127,126,128,128,128,128,0
5397,125,126,127,127,128,128,128,128,0
5400,124,127,127,129,125,125,126,126,0
5404,124,127,128,129,125,126,128,128,0
5407,133,128,128,127,124,128,128,128,0
5410,128,126,128,129,126,127,127,125,0
5414,126,128,128,128,125,127,126,128,0
5417,131,129,127,126,129,128,128,128,0
5421,132,128,127,125,129,128,128,128,0
5437,131,128,129,127,126,127,130,127,0
5440,121,126,128,128,125,127,129,128,0
5444,131,129,127,127,128,128,129,129,0
5447,131,129,126,127,127,127,127,128,0
5451,127,128,128,127,127,128,128,127,0
5506,123,126,128,130,126,127,128,127,0
5517,123,128,127,126,129,128,127,128,0
5526,134,129,128,128,129,128,129,127,0
5535,125,127,127,127,127,127,127,128,0
5539,122,126,126,129,127,128,127,128,0
5543,126,128,128,128,129,127,128,128,0
5546,130,128,127,127,128,128,128,128,0
5551,126,127,129,128,129,128,126,127,0
5555,125,127,128,129,127,127,127,128,0
5559,124,128,127,128,128,127,126,127,0
5562,132,129,127,128,129,126,128,126,0
5565,127,128,128,129,125,126,127,125,0
5568,125,128,127,129,126,127,127,126,0
5571,122,128,127,127,130,128,128,128,0
5574,131,129,127,127,127,128,126,127,0
5578,128,127,129,127,131,128,126,127,0
5581,128,127,131,129,126,127,127,126,0
5585,122,127,126,127,129,128,128,129,0
5588,133,128,127,126,127,127,127,128,0
5594,132,129,129,128,129,128,127,128,0
5598,126,127,127,131,126,126,127,127,0
5602,123,128,127,128,129,128,127,128,0
5605,132,129,126,127,128,128,129,129,0
5608,127,128,126,129,130,128,126,128,0
5611,126,128,128,128,129,127,126,128,0
5614,127,126,127,128,127,127,129,129,0
5618,128,128,127,127,126,127,127,128,0
5621,130,128,129,128,127,128,127,127,0
5625,127,127,128,129,125,127,128,125,0
5628,124,128,128,129,126,127,128,128,0
5631,131,128,127,125,128,128,127,128,0
5635,133,128,128,126,127,128,126,126,0
5638,123,127,128,129,126,127,129,126,0
5641,124,127,127,125,129,129,127,128,0
5645,133,128,126,126,129,128,127,127,0
5648,129,128,126,126,126,128,127,127,0
5651,129,125,129,127,127,127,127,127,0
5654,129,126,126,127,127,128,128,128,0
5659,126,128,126,127,128,128,130,128,0
5664,124,127,126,129,127,128,127,128,0
5672,128,127,127,127,127,128,130,126,0
5675,123,127,128,130,125,126,128,127,0
5678,125,127,127,126,128,128,129,129,0
5681,131,128,127,127,127,127,128,128,0
5685,131,128,130,127,128,127,129,128,0
5688,117,127,128,129,126,127,127,127,0
5691,133,129,128,128,129,129,127,128,0
5695,128,129,127,128,129,127,127,128,0
5700,132,128,129,126,126,127,128,125,0
5704,126,126,128,129,127,126,128,127,0
5707,126,128,126,127,129,128,129,129,0
5710,132,129,127,127,129,128,127,127,0
5713,125,127,127,128,129,128,129,128,0
5716,126,127,127,129,125,126,127,126,0
5719,126,127,126,125,129,128,128,128,0
5722,133,128,130,126,130,128,129,128,0
5726,126,127,127,128,128,128,126,126,0
5729,121,126,128,129,125,126,127,126,0
5733,129,128,126,127,128,128,127,127,0
5736,133,129,129,128,129,128,129,128,0
5740,126,127,127,127,127,127,129,128,0
5743,123,126,127,128,127,127,128,128,0
5746,127,128,127,128,128,128,129,129,0
5749,128,128,127,127,124,127,126,128,0
5753,127,127,128,127,125,128,126,127,0
5756,128,127,127,129,126,126,127,126,0
5759,125,127,128,128,126,126,126,127,0
5763,124,128,126,125,129,128,129,129,0
5768,128,128,128,126,126,128,125,126,0
5771,127,127,128,128,126,127,128,126,0
5775,124,127,127,126,128,128,127,128,0
5781,131,129,128,128,129,128,128,127,0
5785,130,128,129,127,128,128,128,127,0
5788,126,125,128,128,129,128,127,127,0
5791,128,128,127,126,129,128,128,129,0
5794,128,128,127,127,127,128,128,128,0
5798,129,126,126,127,129,127,126,128,0
5800,128,125,130,130,124,126,128,127,0
5805,124,128,128,129,125,127,127,128,0
5807,134,129,128,127,128,128,126,127,0
5810,130,128,126,127,127,127,128,128,0
5813,122,127,126,128,129,128,127,127,0
5817,123,127,126,127,128,128,129,129,0
5820,128,129,126,128,127,128,127,128,0
5824,127,127,127,128,128,128,129,128,0
5828,127,126,128,130,125,126,128,125,0
5832,125,127,128,129,126,127,126,129,0
5835,131,128,127,126,128,128,129,128,0
5837,128,127,125,126,128,128,130,128,0
5840,129,127,128,128,130,128,130,127,0
5842,126,127,126,127,129,128,130,129,0
5845,130,128,126,127,128,128,129,128,0
5848,127,128,127,128,128,128,128,127,0
5851,130,127,127,128,129,128,127,128,0
5855,119,127,128,129,126,127,126,127,0
5858,126,129,127,129,125,128,128,128,0
5861,130,128,126,127,128,129,127,127,0
5864,124,127,128,129,127,126,127,126,0
5867,125,127,127,125,129,130,131,129,0
5869,135,129,127,127,129,128,128,128,0
5873,130,128,129,128,130,128,129,128,0
5880,126,127,126,125,128,129,128,128,0
5887,125,126,126,126,128,128,127,128,0
5890,131,128,128,127,129,128,127,128,0
5893,129,128,127,127,129,128,128,128,0
5902,123,126,127,126,128,128,126,127,0
5908,119,127,126,128,126,127,128,128,0
5912,128,127,127,128,128,127,127,128,0
5915,126,128,127,127,126,128,126,128,0
5919,126,128,128,128,128,127,127,126,0
5923,123,127,127,129,126,127,128,127,0
5927,125,128,126,129,128,128,127,128,0
5930,135,128,128,127,128,128,127,127,0
5934,125,127,126,126,131,127,128,126,0
5937,123,127,128,129,125,126,127,128,0
5940,131,129,129,127,129,128,129,129,0
5943,131,128,126,127,128,128,127,128,0
5947,127,126,127,128,129,128,129,127,0
5950,125,126,127,129,130,128,129,129,0
5953,129,128,126,127,127,128,128,128,0
5959,128,128,128,128,126,128,128,128,0
5961,128,127,128,130,126,127,127,125,0
5964,125,127,128,129,126,127,127,127,0
5968,127,128,126,125,129,128,128,128,0
5971,133,127,130,126,129,128,127,129,0
5974,129,127,126,126,129,128,129,128,0
5978,125,126,128,130,126,126,127,126,0
5981,123,125,130,128,129,128,127,127,0
5984,134,129,128,128,129,127,127,127,0
5992,130,126,130,126,129,128,129,126,0
6001,129,127,127,128,123,128,128,128,0
6005,128,127,126,128,128,127,126,127,0
6009,130,130,129,128,126,128,127,127,0
6013,125,128,128,129,126,126,128,126,0
6020,123,127,128,129,126,126,129,126,0
6025,125,127,127,129,129,128,127,128,0
6029,133,129,126,127,129,128,129,128,0
6032,133,128,128,125,129,128,127,127,0
6035,125,127,128,127,129,128,130,128,0
6039,126,127,126,126,128,127,127,128,0
6042,131,129,128,127,127,127,126,127,0
6045,130,128,131,128,127,126,127,127,0
6048,117,126,129,129,126,126,126,126,0
6051,123,126,128,129,129,128,127,128,0
6055,132,129,128,127,128,127,127,128,0
6058,130,128,127,128,129,128,128,128,0
6061,123,127,127,127,129,128,128,128,0
6064,120,128,129,127,126,127,126,128,0
6067,129,128,129,128,129,128,128,129,0
6070,124,128,127,128,128,128,128,128,0
6073,127,126,126,127,127,127,128,128,0
6077,129,126,127,129,125,126,127,126,0
6080,125,128,127,128,127,129,126,128,0
6084,130,128,127,128,128,127,127,127,0
6088,132,128,129,128,127,126,127,126,0
6090,123,128,128,129,126,126,127,128,0
6093,132,128,127,128,128,128,127,128,0
6096,131,129,128,126,129,128,129,128,0
6099,125,127,126,128,129,128,129,128,0
6101,124,127,127,127,128,127,126,128,0
6104,129,128,130,129,127,128,126,128,0
6108,130,128,127,128,127,127,126,127,0
6111,128,127,126,127,128,128,128,125,0
6113,126,128,128,129,126,127,127,126,0
6119,126,127,130,126,129,127,127,127,0
6125,131,128,127,125,129,128,128,129,0
6132,126,127,127,125,129,128,128,128,0
6136,121,127,128,129,126,126,127,127,0
6139,129,129,127,126,128,128,128,128,0
6142,132,128,129,128,129,128,127,128,0
6145,125,127,127,128,129,128,128,125,0
6147,120,127,128,129,125,127,127,126,0
6150,125,128,127,126,129,128,129,128,0
6152,132,128,126,127,129,128,129,128,0
6156,128,127,128,130,126,127,127,127,0
6159,121,126,128,129,127,127,127,128,0
6163,133,129,128,127,129,128,126,128,0
6167,132,129,128,127,128,128,126,127,0
6170,126,128,129,126,129,128,128,128,0
6173,129,125,127,127,129,128,128,128,0
6177,131,127,126,128,128,128,128,129,0
6181,134,128,129,127,126,128,127,127,0
6187,121,128,127,127,128,127,126,127,0
6190,128,127,127,127,129,128,127,127,0
6193,130,128,127,127,126,128,127,128,0
6197,131,128,129,128,129,127,127,128,0
6201,122,127,127,129,125,127,127,126,0
6204,123,127,129,129,126,127,128,127,0
6208,123,127,127,126,128,128,128,128,0
6212,130,129,126,125,128,128,128,127,0
6215,130,126,128,127,127,128,127,128,0
6218,119,125,130,128,129,129,128,125,0
6222,124,127,128,128,128,128,126,127,0
6225,129,130,129,128,130,128,128,128,0
6230,121,128,127,127,126,128,127,127,0
6234,121,127,128,129,125,127,128,126,0
6238,125,127,127,128,130,128,129,129,0
6242,132,129,126,125,129,128,129,129,0
6247,129,128,126,127,126,128,127,127,0
6251,128,126,130,126,127,128,128,127,0
6257,124,125,128,127,128,128,128,129,0
6260,133,129,128,127,125,128,127,128,0
6263,130,128,128,128,127,129,126,126,0
6266,127,128,127,129,125,126,128,126,0
6269,124,126,127,128,130,128,128,129,0
6273,132,128,126,126,128,128,127,128,0
6276,131,128,126,126,127,128,127,127,0
6280,131,125,130,126,126,127,127,127,0
6283,120,127,126,125,129,128,128,129,0
6286,130,128,126,126,128,128,129,128,0
6289,127,128,126,127,126,127,128,126,0
6292,125,127,128,129,126,127,128,126,0
6295,123,126,128,125,130,128,127,128,0
6298,132,129,129,126,129,128,127,128,0
6301,133,128,130,128,130,129,126,127,0
6305,123,127,127,128,128,128,127,127,0
6308,127,127,130,128,129,128,128,128,0
6311,129,128,126,127,126,128,127,129,0
6314,129,128,128,129,125,125,127,126,0
6317,125,126,128,129,126,126,127,126,0
6320,125,128,127,128,129,130,131,130,0
6322,129,128,126,126,128,128,127,129,0
6326,132,129,127,126,129,128,128,128,0
6329,125,128,129,128,129,128,129,127,0
6333,127,127,126,128,128,128,128,128,0
6336,131,128,127,127,129,127,127,128,0
6340,126,128,126,127,126,127,127,127,0
6343,123,127,127,127,128,128,129,128,0
6350,119,126,127,128,129,127,128,129,0
6355,124,129,126,128,127,126,128,128,0
6358,129,127,127,129,126,127,126,126,0
6361,124,127,127,129,126,126,128,125,0
6365,124,127,128,128,126,126,128,126,0
6369,125,128,129,127,131,128,128,127,0
6371,133,128,129,125,129,128,127,127,0
6376,129,128,130,128,130,128,128,128,0
6379,124,126,126,128,130,128,129,128,0
6383,129,128,126,127,128,128,127,128,0
6387,132,129,128,126,129,128,128,128,0
6391,124,127,126,128,128,128,127,127,0
6393,124,126,129,130,125,126,127,127,0
6397,125,127,127,129,129,129,127,129,0
6401,132,129,128,128,130,129,127,128,0
6404,124,126,126,128,128,128,125,128,0
6407,122,127,128,128,129,127,126,127,0
6410,130,129,128,128,129,128,128,129,0
6413,129,129,126,128,127,127,128,128,0
6417,130,127,127,128,128,128,127,127,0
6419,124,127,128,129,125,127,127,127,0
6422,125,127,127,128,129,128,127,128,0
6425,132,128,128,127,129,128,128,129,0
6428,129,127,129,126,129,127,127,127,0
6432,133,126,127,127,128,127,126,125,0
6435,119,128,127,127,129,127,127,129,0
6438,125,128,128,126,128,127,126,128,0
6442,132,128,128,126,129,127,126,128,0
6445,125,127,128,130,126,126,129,124,0
6448,127,127,127,130,126,126,127,128,0
6451,131,129,127,127,129,127,128,128,0
6455,129,128,128,128,130,128,128,128,0
6458,128,126,127,126,127,127,126,127,0
6463,123,127,127,128,128,128,127,128,0
6468,126,128,128,127,128,127,129,129,0
6472,121,126,128,129,125,127,127,126,0
6475,127,127,127,129,126,127,127,126,0
6478,125,127,127,128,129,130,131,129,0
6481,135,128,126,125,130,128,128,129,0
6483,131,127,127,125,129,128,126,127,0
6486,125,125,127,127,128,128,130,127,0
6489,128,126,128,128,129,128,128,128,0
6491,128,128,127,127,128,127,127,127,0
6494,131,128,129,128,126,127,127,126,0
6497,122,128,128,129,126,126,127,126,0
6500,124,127,128,129,126,128,128,129,0
6503,130,128,126,127,128,128,128,128,0
6506,133,128,128,128,129,128,127,127,0
6511,127,127,129,128,129,127,129,128,0
6514,127,127,127,127,126,127,127,128,0
6520,130,128,128,127,128,128,128,128,0
6523,124,128,128,126,129,128,127,127,0
6526,125,127,128,129,126,126,126,125,0
6529,124,127,128,129,125,128,130,128,0
6532,130,128,127,127,128,128,128,129,0
6535,133,129,127,127,128,128,128,128,0
6538,127,126,129,126,128,128,127,128,0
6542,121,127,126,126,128,127,126,128,0
6544,128,128,128,127,128,127,128,128,0
6547,126,128,130,129,129,127,127,128,0
6550,124,127,128,128,127,128,127,128,0
6554,124,124,128,129,125,126,127,126,0
6557,124,125,128,127,127,128,128,128,0
6560,133,128,128,127,128,128,126,127,0
6564,125,126,127,129,126,126,128,127,0
6568,125,127,129,129,126,127,128,127,0
6572,125,128,126,127,130,128,128,129,0
6575,134,128,126,126,129,128,129,128,0
6578,128,127,127,127,127,127,127,128,0
6582,127,124,128,128,130,128,129,128,0
6596,128,127,126,127,128,128,128,129,0
6600,133,128,129,128,128,128,126,128,0
6603,125,128,127,129,127,128,126,127,0
6666,129,127,129,129,129,128,129,127,0
6675,131,128,128,128,128,128,127,128,0
6684,128,128,129,128,124,128,128,126,0
6692,126,127,128,130,126,127,127,125,0
6696,126,126,127,128,125,126,127,127,0
6701,124,128,126,125,128,128,128,129,0
6705,133,129,128,128,128,128,126,128,0
6709,132,125,130,128,125,127,127,127,0
6713,123,129,127,130,126,127,128,126,0
6717,124,128,126,126,129,128,128,129,0
6721,132,129,128,126,128,128,128,129,0
6724,130,128,129,128,129,128,129,129,0
6727,128,127,127,128,131,127,127,128,0
6731,128,128,130,128,128,128,128,128,0
6734,129,129,129,128,128,128,128,128,0
6737,127,128,128,127,125,128,127,127,0
6742,130,126,130,129,126,126,127,126,0
6745,124,127,127,129,126,127,127,128,0
6748,133,129,127,125,129,129,129,128,0
6751,130,128,126,128,129,128,128,127,0
6755,130,126,131,128,128,127,128,129,0
6759,128,127,128,127,125,127,127,128,0
6765,129,129,129,128,126,127,126,128,0
6771,126,128,128,126,128,127,126,128,0
6774,130,126,126,128,127,126,127,126,0
6779,125,127,128,130,125,127,127,127,0
6783,123,129,127,127,128,128,127,128,0
6787,133,129,128,127,128,127,127,128,0
6790,120,126,128,128,127,127,128,126,0
6793,125,126,127,129,126,127,127,128,0
6797,133,128,127,126,128,128,128,128,0
6800,133,129,128,126,129,128,127,127,0
6808,129,127,127,130,126,127,127,127,0
6812,120,127,129,128,129,128,129,129,0
6815,131,127,125,126,129,128,129,129,0
6818,128,128,125,127,126,128,127,127,0
6821,131,128,130,129,128,128,128,127,0
6825,122,127,128,130,126,127,128,127,0
6828,126,127,126,128,129,128,128,127,0
6831,132,128,126,125,129,128,129,128,0
6835,126,125,129,127,130,128,129,127,0
6838,121,127,126,127,125,128,128,128,0
6841,131,128,128,128,129,128,127,129,0
6865,127,128,127,126,128,127,128,127,0
6870,124,128,128,130,126,126,127,126,0
6874,125,127,129,129,124,127,126,127,0
6877,133,128,129,127,129,128,127,128,0
6880,131,128,127,126,128,128,128,128,0
6935,130,127,127,127,127,130,128,128,0
6945,120,126,126,128,125,127,127,128,0
6955,130,128,126,127,128,128,128,128,0
6964,133,129,129,128,128,127,127,128,0
6968,125,128,130,126,128,127,126,127,0
6972,127,127,127,129,125,126,128,126,0
6976,125,128,128,130,123,128,129,128,0
6979,134,129,127,127,128,128,126,128,0
6982,128,128,128,128,128,127,127,127,0
6986,126,126,127,127,128,126,126,128,0
6989,129,127,128,126,129,128,129,129,0
6992,128,128,126,128,127,128,129,127,0
6996,126,127,126,128,126,128,128,126,0
6999,124,127,128,129,126,126,127,126,0
7002,125,128,127,130,124,129,128,129,0
7006,132,129,127,127,128,128,127,128,0
7010,131,127,128,127,126,128,128,128,0
7013,121,126,127,126,127,129,127,128,0
7017,130,128,126,127,128,127,126,128,0
7020,130,129,129,128,127,126,127,127,0
7024,128,127,127,130,126,126,127,126,0
7027,125,127,128,129,126,126,127,126,0
7030,126,126,127,127,128,128,128,129,0
7033,132,130,127,127,128,128,128,128,0
7037,132,128,126,127,131,128,129,128,0
7041,126,126,126,125,128,128,129,129,0
7044,126,127,126,127,127,127,128,129,0
7047,128,129,126,126,128,128,128,129,0
7050,127,127,129,128,128,127,130,127,0
7052,125,128,128,129,126,127,127,127,0
7055,123,128,128,128,130,128,127,128,0
7060,131,128,127,128,130,128,128,129,0
7066,130,127,126,125,128,128,127,127,0
7070,130,126,128,128,128,128,127,127,0
7073,125,128,127,127,128,128,126,127,0
7076,130,128,128,126,128,127,127,128,0
7080,125,126,128,128,128,128,127,128,0
7084,128,127,127,128,128,128,127,127,0
7089,123,127,126,127,125,127,128,127,0
7092,126,128,128,128,128,128,128,128,0
7096,129,127,127,127,126,126,127,125,0
7100,127,127,127,129,125,126,127,126,0
7112,133,129,126,125,128,128,127,128,0
7102,124,127,128,129,125,126,127,127,0
7115,132,128,127,126,129,128,126,127,0
7122,128,127,127,128,131,130,129,128,0
7129,126,127,128,129,125,128,127,128,0
7132,129,129,129,127,128,128,127,128,0
7136,128,129,128,126,129,127,127,127,0
7139,120,126,127,128,124,128,128,127,0
7144,127,128,127,126,128,128,128,129,0
7147,129,129,127,128,127,127,126,128,0
7150,131,128,126,128,126,127,128,128,0
7153,132,127,128,127,128,127,127,126,0
7157,126,126,128,129,125,126,126,126,0
7160,128,128,128,127,128,128,127,128,0
7164,130,130,127,128,129,128,129,128,0
7167,123,125,129,128,129,128,127,126,0
7170,122,128,127,129,126,127,127,126,0
7173,123,128,127,126,129,128,128,128,0
7176,131,128,127,127,130,128,129,128,0
7180,127,127,127,128,126,127,126,126,0
7184,124,128,128,129,125,128,128,128,0
7189,132,128,129,128,129,128,128,129,0
7195,132,128,127,125,128,128,128,127,0
7198,130,128,131,128,128,128,128,128,0
7201,129,127,128,127,127,127,126,127,0
7204,129,129,129,127,128,127,126,128,0
7207,132,129,129,129,126,126,130,127,0
7210,122,125,127,129,126,126,127,126,0
7214,124,127,128,129,126,127,127,128,0
7217,130,128,126,125,129,128,129,129,0
7220,131,128,127,126,129,128,127,128,0
7224,125,128,126,128,129,128,129,128,0
7227,124,127,128,126,129,128,127,127,0
7230,126,126,129,127,129,128,126,128,0
7233,129,129,127,126,129,128,128,128,0
7236,130,127,127,126,129,128,127,128,0
7239,126,127,126,128,128,127,126,127,0
7242,128,127,128,127,129,128,126,128,0
7244,129,128,129,128,128,128,127,125,0
7247,127,127,128,129,126,126,126,126,0
7250,125,127,128,129,125,127,128,126,0
7252,124,128,127,127,129,129,129,129,0
7255,133,128,127,126,129,129,127,128,0
7258,131,127,128,127,128,128,126,128,0
7261,128,126,129,128,129,130,132,128,0
7263,125,126,127,126,129,128,129,128,0
7266,129,128,126,127,128,127,127,127,0
7269,128,127,127,127,129,128,128,128,0
7273,129,127,127,126,128,127,126,127,0
7279,122,127,126,128,128,127,127,128,0
7284,132,129,126,128,128,128,128,127,0
7287,125,128,131,129,125,126,127,126,0
7291,127,127,128,129,126,127,127,126,0
7294,124,127,128,129,126,128,127,128,0
7297,136,128,127,125,128,128,127,127,0
7300,133,128,129,126,129,128,129,129,0
7303,124,127,126,127,126,127,128,128,0
7307,129,126,128,127,128,127,126,128,0
7310,132,129,129,126,129,128,127,128,0
7314,125,127,127,126,128,128,127,127,0
7317,118,126,128,130,126,127,127,125,0
7320,125,127,128,129,125,126,127,128,0
7323,131,129,128,126,129,128,129,128,0
7327,131,128,126,126,127,127,128,128,0
7329,122,127,126,128,130,128,126,127,0
7332,120,126,128,129,126,126,127,128,0
7335,133,129,127,128,128,128,128,128,0
7338,131,129,127,126,128,127,127,127,0
7341,127,124,128,126,127,127,127,126,0
7343,125,128,128,129,126,127,126,128,0
7346,132,129,129,126,128,128,128,128,0
7349,132,128,126,125,128,128,128,128,0
7351,131,127,128,128,127,127,127,127,0
7354,122,127,128,129,125,126,127,128,0
7357,132,128,127,127,128,128,127,128,0
7361,131,129,127,126,129,128,128,128,0
7364,129,128,128,128,127,128,128,127,0
7367,129,125,128,129,125,127,129,128,0
7370,129,127,128,127,127,128,127,128,0
7375,130,129,128,128,125,127,127,128,0
7381,128,128,128,127,129,128,129,127,0
7384,121,127,128,127,129,127,128,127,0
7387,127,128,128,127,128,127,127,127,0
7390,130,129,129,128,127,128,129,127,0
7394,124,127,127,129,126,126,128,125,0
7398,125,127,128,128,125,127,127,127,0
7401,125,127,129,125,129,128,128,129,0
7405,131,128,127,127,131,128,128,128,0
7412,119,126,128,129,126,127,126,126,0
7415,128,127,127,126,127,127,128,126,0
7418,132,128,127,126,127,128,127,128,0
7421,133,128,127,127,128,128,128,128,0
7425,130,128,128,126,129,128,128,127,0
7430,123,126,128,130,125,127,128,125,0
7433,124,127,127,127,128,128,128,128,0
7436,133,129,127,127,128,128,126,127,0
7439,132,127,129,128,129,128,130,127,0
7442,122,124,128,130,127,126,128,127,0
7446,123,128,128,127,129,129,127,128,0
7449,129,129,128,127,128,128,127,128,0
7452,133,128,127,128,129,128,128,128,0
7455,129,127,127,129,126,127,126,127,0
7458,127,128,129,126,129,128,128,128,0
7464,129,129,127,128,128,127,127,128,0
7467,125,127,127,126,128,128,128,128,0
7471,118,128,128,129,129,128,127,127,0
7474,129,127,128,128,130,127,128,128,0
7478,127,128,126,128,128,127,127,126,0
7483,127,128,128,129,126,126,127,125,0
7487,126,128,127,129,126,127,127,125,0
7492,125,127,127,128,128,128,128,127,0
7497,132,127,128,127,129,128,128,128,0
7502,132,128,126,126,127,128,127,127,0
7506,128,126,128,127,127,128,128,128,0
7509,127,126,128,128,130,128,128,128,0
7512,131,128,126,127,128,128,129,129,0
7515,128,127,126,126,128,127,125,127,0
7518,128,125,128,130,126,127,127,126,0
7522,125,128,128,129,125,127,131,129,0
7525,133,128,126,127,128,128,128,128,0
7528,132,128,127,127,127,128,128,128,0
7531,127,127,128,128,127,127,129,126,0
7534,121,127,128,129,125,127,128,128,0
7538,131,128,127,125,129,128,129,128,0
7540,132,128,128,126,128,128,126,127,0
7543,131,127,129,126,129,128,128,129,0
7547,122,127,127,130,125,126,127,127,0
7550,123,129,128,126,129,128,128,128,0
7553,131,128,127,126,128,128,127,127,0
7557,131,127,130,126,127,128,128,127,0
7560,128,126,128,128,130,127,128,129,0
7563,124,127,127,128,129,128,127,128,0
7567,124,130,129,128,127,128,127,128,0
7570,118,127,129,128,125,128,127,127,0
7573,129,127,128,128,128,128,127,128,0
7577,127,128,126,127,128,128,127,128,0
7580,130,129,126,128,127,127,127,126,0
7583,127,127,128,129,126,126,127,126,0
7587,124,128,128,129,126,127,126,126,0
7593,124,128,126,127,129,128,127,128,0
7598,129,127,130,128,130,128,127,128,0
7605,126,128,127,128,131,128,129,128,0
7608,121,127,127,128,126,127,126,128,0
7611,132,128,130,127,128,128,126,128,0
7615,131,129,128,126,128,127,126,128,0
7618,122,128,129,126,129,127,126,128,0
7621,123,127,128,129,125,126,128,127,0
7624,123,128,127,128,127,128,127,127,0
7628,133,129,128,128,129,128,127,128,0
7631,125,128,128,129,128,127,128,128,0
7635,131,126,128,130,126,127,128,127,0
7638,124,127,128,128,129,128,127,128,0
7641,133,128,127,128,129,128,128,129,0
7644,130,127,126,126,129,128,128,129,0
7649,130,127,127,128,126,127,127,128,0
7652,130,128,128,128,128,128,127,129,0
7655,131,128,126,127,127,128,128,128,0
7657,132,128,128,128,126,127,128,129,0
7660,124,125,128,130,126,126,127,127,0
7662,124,128,128,130,125,126,128,129,0
7666,131,128,126,126,129,129,127,128,0
7671,129,128,128,127,129,130,129,127,0
7681,126,126,129,128,131,127,127,126,0
7688,123,127,128,129,126,128,128,129,0
7692,130,129,126,127,128,128,129,128,0
7695,130,128,127,127,127,127,127,126,0
7698,129,128,127,128,126,126,128,126,0
7701,126,127,127,128,129,129,128,128,0
7704,133,128,130,126,129,128,128,128,0
7710,128,127,127,128,129,128,128,128,0
7717,125,126,126,127,126,128,128,129,0
7721,122,126,128,127,129,128,127,128,0
7724,126,129,127,128,130,127,128,128,0
7728,129,128,127,127,128,127,127,128,0
7731,120,127,127,126,129,127,129,127,0
7734,120,126,128,128,128,127,128,128,0
7737,131,126,128,129,126,126,128,126,0
7741,127,128,128,129,126,126,127,125,0
7744,126,128,128,129,127,127,128,126,0
7747,122,127,127,125,129,128,129,128,0
7751,133,129,127,125,129,128,128,128,0
7754,130,128,126,128,131,130,129,127,0
7758,128,127,127,127,127,128,130,128,0
7761,117,126,126,126,129,128,128,129,0
7766,132,128,127,127,128,128,128,129,0
7769,131,128,127,127,127,128,126,128,0
7772,130,127,128,129,128,127,128,127,0
7775,130,127,128,126,128,128,127,127,0
7779,126,128,126,127,127,128,127,129,0
7782,132,128,127,127,128,129,126,127,0
7785,126,128,128,129,128,128,127,125,0
7788,121,128,127,129,125,127,127,127,0
7792,125,128,128,128,128,128,128,128,0
7795,134,129,128,128,128,127,127,127,0
7798,124,127,128,127,127,127,126,127,0
7802,125,126,127,128,127,130,125,127,0
7805,131,129,129,128,128,128,127,128,0
7808,131,128,127,126,128,128,129,128,0
7811,125,127,128,127,127,128,128,126,0
7815,124,127,127,128,125,127,128,126,0
7819,125,128,127,127,130,128,127,128,0
7825,132,129,129,128,129,128,129,129,0
7828,126,127,125,129,125,128,128,128,0
7832,131,127,127,129,129,128,129,127,0
7835,131,129,130,128,128,128,126,128,0
7838,129,129,128,128,128,127,126,127,0
7841,134,128,128,129,126,126,127,126,0
7845,126,128,129,129,126,127,128,127,0
7848,125,128,127,126,129,128,128,129,0
7852,132,129,127,128,130,128,128,129,0
7855,129,128,127,127,128,128,126,127,0
7860,129,126,130,128,126,127,127,127,0
7864,127,128,129,126,129,128,125,127,0
7870,130,129,128,126,128,128,128,128,0
7872,123,128,130,126,128,127,128,127,0
7877,128,125,128,130,126,126,127,126,0
7880,125,128,127,130,125,128,130,129,0
7883,132,128,127,127,128,128,128,129,0
7887,130,128,127,128,129,127,127,127,0
7890,128,126,128,128,128,127,129,128,0
7894,128,128,128,127,127,128,127,128,0
7897,129,128,125,127,127,128,127,125,0
7900,123,126,127,130,126,126,127,126,0
7903,127,128,128,129,126,126,128,126,0
7907,125,128,127,127,128,128,128,129,0
7910,132,129,126,125,128,128,127,128,0
7913,131,129,130,125,128,128,127,128,0
7917,126,127,127,127,131,128,130,127,0
7920,126,128,128,128,129,128,129,128,0
7922,129,128,126,127,129,128,129,129,0
7926,128,127,126,128,128,127,128,128,0
7930,130,128,128,127,126,128,128,128,0
7935,117,127,127,130,125,127,126,128,0
7940,131,129,128,126,128,128,128,129,0
7943,126,127,126,126,126,128,127,126,0
7945,124,127,127,129,126,127,128,126,0
7948,124,127,128,129,126,128,126,128,0
7951,133,128,127,127,129,128,127,128,0
7954,131,128,127,126,129,128,129,128,0
7957,128,126,126,128,127,127,127,127,0
7961,129,125,130,128,129,128,128,128,0
7964,125,129,126,126,129,128,128,129,0
7967,123,128,127,128,129,128,126,127,0
7970,129,126,128,126,125,128,127,127,0
7974,119,127,128,130,125,126,127,126,0
7977,126,128,128,128,128,128,129,128,0
7982,132,129,127,127,128,127,127,127,0
7987,127,127,129,128,129,129,127,125,0
7990,119,127,129,129,125,127,127,128,0
7993,133,129,128,127,128,128,126,127,0
7996,133,129,128,125,129,128,128,128,0
7999,123,127,127,128,128,127,126,127,0
8002,127,127,128,128,126,128,126,128,0
8005,129,129,128,128,127,128,127,129,0
8009,128,128,127,128,129,128,127,128,0
8018,123,127,127,129,126,126,127,126,0
8021,124,127,128,129,124,127,127,127,0
8024,127,128,125,125,129,128,129,128,0
8027,134,128,127,127,128,128,127,127,0
8030,129,128,129,128,128,127,129,128,0
8034,117,126,127,129,126,126,127,128,0
8040,130,128,127,128,129,128,128,128,0
8048,132,129,126,127,128,128,129,128,0
8052,127,127,126,127,127,127,129,127,0
8055,129,127,128,127,129,127,127,128,0
8059,131,128,128,128,129,127,128,129,0
8062,128,128,125,127,127,128,127,128,0
8066,129,127,128,128,126,127,128,128,0
8069,126,127,128,128,129,127,127,127,0
8071,129,128,130,130,125,127,127,128,0
8074,132,128,126,127,126,128,126,128,0
8078,126,127,130,130,126,126,128,127,0
8082,125,128,128,129,126,126,128,125,0
8085,125,126,128,127,128,128,127,128,0
8087,133,127,130,125,129,128,129,128,0
8091,118,127,128,127,126,127,127,127,0
8094,128,127,126,127,128,127,127,127,0
8097,127,126,129,127,126,128,128,128,0
8101,133,129,128,128,127,128,126,126,0
8104,130,128,128,130,125,127,127,126,0
8107,123,128,128,129,125,127,127,126,0
8111,124,128,128,128,131,129,127,128,0
8114,132,129,128,127,129,128,129,128,0
8117,133,128,127,125,128,128,126,127,0
8121,128,125,128,130,126,127,126,127,0
8125,129,127,127,128,129,128,128,128,0
8128,126,129,126,128,129,128,128,129,0
8132,130,127,127,128,126,127,127,128,0
8135,130,126,129,128,128,128,126,127,0
8138,128,128,128,126,128,127,126,128,0
8142,132,128,128,128,128,127,128,128,0
8147,129,128,128,129,128,126,126,127,0
8153,126,128,128,130,125,126,127,127,0
8156,123,127,128,129,124,127,126,129,0
8159,131,129,126,127,131,128,128,128,0
8162,131,129,127,127,128,128,126,127,0
8165,129,128,129,128,130,128,128,127,0
8168,120,127,127,125,128,128,126,128,0
8171,129,129,127,126,128,128,129,129,0
8174,124,127,127,128,127,128,128,128,0
8178,126,127,127,130,125,127,128,126,0
8182,123,127,127,129,125,127,126,128,0
8187,129,128,127,127,128,128,126,128,0
8190,133,128,128,126,130,128,128,128,0
8192,125,126,127,128,127,127,129,127,0
8196,121,128,128,129,125,127,126,128,0
8199,130,129,128,127,128,128,127,128,0
8202,129,128,126,127,128,128,126,128,0
8205,130,126,129,128,127,127,126,127,0
8209,124,125,128,126,129,128,127,129,0
8212,128,128,127,128,128,128,128,129,0
8216,128,128,126,127,129,128,128,128,0
8219,125,126,129,130,126,126,127,126,0
8224,124,127,127,129,124,127,128,127,0
8228,127,125,128,127,129,128,128,128,0
8231,134,129,130,128,129,128,127,127,0
8235,127,127,126,126,128,128,128,128,0
8238,126,126,128,129,126,127,127,127,0
8242,127,127,126,126,128,128,128,129,0
8245,131,129,128,126,129,128,127,128,0
8249,123,127,126,127,127,128,127,128,0
8255,123,125,130,127,124,128,128,128,0
8258,128,129,128,127,126,127,125,127,0
8261,129,129,128,127,129,127,128,129,0
8264,127,126,129,126,129,128,127,128,0
8266,129,127,128,128,127,128,126,127,0
8269,118,128,128,129,125,126,127,127,0
8272,125,129,128,129,125,126,127,126,0
8275,125,127,128,126,129,128,127,127,0
8278,131,127,130,127,130,128,127,127,0
8281,130,127,130,128,129,128,128,128,0
8284,135,129,128,128,129,128,128,129,0
8288,124,128,129,126,127,128,128,127,0
8294,123,128,128,130,126,127,127,126,0
8297,123,127,127,128,129,129,129,129,0
8300,132,129,126,126,129,128,129,129,0
8303,127,128,126,127,128,129,128,128,0
8306,121,126,129,128,128,128,127,128,0
8309,122,127,126,128,128,128,128,128,0
8317,130,128,127,128,129,127,129,128,0
8320,131,128,128,128,128,127,126,128,0
8324,126,127,127,126,127,127,127,127,0
8327,125,127,126,127,128,128,126,127,0
8331,128,129,128,128,129,127,129,128,0
8334,129,127,128,128,125,126,129,124,0
8337,129,128,128,129,125,127,128,124,0
8341,127,127,128,128,125,130,129,129,0
8344,129,128,126,125,128,128,128,129,0
8348,129,128,127,125,127,128,127,128,0
8350,124,126,127,127,126,126,127,126,0
8354,121,127,128,128,129,128,127,128,0
8360,130,129,129,128,130,128,127,128,0
8364,128,128,127,126,129,128,128,128,0
8367,130,128,131,129,127,128,127,127,0
8370,124,127,127,126,128,128,128,129,0
8374,132,128,128,128,126,127,126,127,0
8377,133,128,129,128,128,128,126,128,0
8381,128,126,126,127,128,127,127,127,0
8384,123,127,127,129,126,126,128,127,0
8387,124,128,127,129,126,127,128,126,0
8390,126,128,128,127,129,128,127,127,0
8394,130,127,127,128,130,128,128,127,0
8397,127,127,129,128,124,128,127,128,0
8400,132,130,127,128,128,127,126,128,0
8404,129,128,127,126,128,128,129,126,0
8407,125,128,127,129,126,126,127,126,0
8410,125,127,128,129,126,127,127,127,0
8413,129,128,126,124,130,128,128,128,0
8416,130,129,127,125,129,128,128,128,0
8419,130,126,128,128,129,128,129,128,0
8422,126,126,127,126,128,127,128,128,0
8427,129,128,127,128,128,128,126,128,0
8430,129,128,129,129,128,128,128,127,0
8433,129,128,127,129,129,128,128,127,0
8438,123,126,128,127,129,128,128,129,0
8441,119,128,128,129,128,128,127,127,0
8443,128,128,128,127,124,126,126,126,0
8447,125,128,128,129,126,126,127,126,0
8451,125,127,128,128,126,127,127,127,0
8455,126,128,126,125,132,128,128,128,0
8459,135,128,128,128,129,128,128,129,0
8464,126,129,126,127,126,128,130,125,0
8466,129,126,128,126,128,128,126,128,0
8470,130,128,127,127,128,128,126,128,0
8473,130,128,127,128,130,127,128,128,0
8480,128,127,127,128,128,128,127,128,0
8477,123,127,127,128,127,128,127,127,0
8483,126,127,128,126,128,127,127,129,0
8487,131,129,126,128,127,128,127,128,0
8490,128,124,128,130,126,127,128,126,0
8493,126,128,128,129,125,126,128,127,0
8496,124,128,127,126,129,128,127,128,0
8499,134,129,128,127,128,128,128,128,0
8503,133,127,128,127,125,128,128,128,0
8506,132,127,128,127,126,128,127,127,0
8509,132,126,130,126,129,128,126,128,0
8513,128,129,126,127,128,128,127,128,0
8517,131,128,126,127,127,128,129,127,0
8520,130,124,128,129,126,126,127,126,0
8522,123,127,127,129,126,126,128,128,0
8526,131,129,129,128,129,128,127,128,0
8529,130,128,126,128,128,128,127,127,0
8532,130,128,129,128,129,128,128,126,0
8535,121,126,127,129,124,128,127,128,0
8537,134,129,128,126,128,128,125,129,0
8540,126,128,127,127,128,128,129,127,0
8542,130,128,128,129,126,126,127,127,0
8546,125,128,128,129,125,129,128,129,0
8551,130,129,126,126,130,128,129,129,0
8557,133,128,128,127,128,128,126,127,0
8560,128,127,129,128,125,127,127,126,0
8563,126,128,128,129,126,126,128,128,0
8567,131,129,128,125,129,128,128,128,0
8571,131,128,126,125,128,128,128,126,0
8574,131,127,128,127,127,127,127,126,0
8577,127,126,127,127,127,127,128,128,0
8582,130,129,127,128,128,128,127,128,0
8584,126,129,127,128,128,127,127,128,0
8587,124,128,128,128,127,127,127,127,0
8590,120,127,128,129,125,126,127,126,0
8593,124,127,127,126,128,128,129,129,0
8596,131,128,127,127,127,128,128,127,0
8599,129,127,126,128,129,127,130,126,0
8602,123,128,128,129,125,126,127,127,0
8606,128,128,126,127,129,128,128,128,0
8609,133,129,128,126,130,128,128,128,0
8613,126,127,126,126,127,130,126,127,0
8645,124,126,127,128,128,128,129,129,0
8650,130,128,126,127,126,128,129,129,0
8654,128,128,127,127,125,128,128,128,0
8715,120,127,130,129,125,126,127,127,0
8726,125,128,127,129,125,127,126,128,0
8735,130,128,126,127,129,128,129,128,0
8741,134,128,128,125,129,128,128,128,0
8750,125,127,126,125,127,129,127,127,0
8784,130,127,128,129,125,127,128,126,0
8797,124,128,127,127,128,128,126,127,0
8821,128,126,127,128,129,128,129,128,0
8816,126,128,127,125,128,130,128,128,0
8808,133,129,127,127,129,128,128,128,0
8826,129,128,125,127,128,128,128,129,0
8836,127,127,127,128,129,128,129,128,0
8840,126,127,128,130,126,127,128,126,0
8844,124,128,128,130,125,127,129,127,0
8849,123,127,126,127,128,128,128,129,0
8852,131,128,126,127,128,128,127,127,0
8855,129,126,129,128,128,127,127,127,0
8859,127,127,126,128,129,128,129,129,0
8862,124,127,126,126,127,127,126,128,0
8865,130,129,129,128,127,128,127,128,0
8869,130,128,127,128,127,128,128,128,0
8872,123,127,127,128,127,127,128,127,0
8875,130,126,126,127,127,128,127,128,0
8879,131,129,128,128,128,128,127,127,0
8882,122,128,128,129,126,126,127,126,0
8886,122,127,128,129,126,126,128,126,0
8889,124,128,127,129,129,128,127,129,0
8892,130,128,127,125,128,128,128,128,0
8896,130,128,129,128,131,128,129,128,0
8899,126,127,127,128,127,127,128,127,0
8903,120,126,129,127,129,128,129,129,0
8906,134,129,128,127,130,128,128,128,0
8910,127,128,126,128,126,128,127,127,0
8916,127,127,127,128,129,128,127,127,0
8921,131,127,128,128,127,127,126,128,0
8924,131,128,127,126,128,127,127,127,0
8927,132,128,129,128,125,127,127,125,0
8930,126,127,127,129,126,126,127,125,0
8933,126,128,128,129,125,127,128,128,0
8936,131,127,130,127,129,128,127,128,0
8983,130,128,127,125,128,128,127,127,0
8991,129,125,130,128,127,128,127,127,0
8998,126,127,127,128,129,128,129,129,0
9004,131,128,126,127,128,128,129,129,0
9011,128,128,127,126,128,128,127,129,0
9052,128,125,128,130,125,126,127,126,0
9061,122,127,127,129,126,126,129,128,0
9069,133,129,128,127,129,127,127,128,0
9075,130,129,129,128,130,128,128,129,0
9081,126,125,128,129,125,127,128,126,0
9086,127,127,127,128,125,128,127,129,0
9091,132,129,126,127,128,128,127,128,0
9095,132,129,128,128,127,127,127,127,0
9099,126,128,128,129,126,126,127,126,0
9103,125,127,128,129,126,127,127,128,0
9106,130,128,127,125,129,127,130,129,0
9110,134,128,126,126,128,128,128,128,0
9113,128,127,127,127,127,128,127,127,0
9116,126,125,129,128,128,128,127,127,0
9120,127,128,128,126,129,128,128,128,0
9124,129,128,127,127,129,128,129,128,0
9130,127,126,127,128,128,128,128,128,0
9134,122,128,127,130,125,126,128,126,0
9137,125,127,129,127,129,128,129,129,0
9141,131,129,126,127,128,128,126,127,0
9144,128,127,126,127,126,128,130,127,0
9147,129,127,126,127,127,128,126,128,0
9150,129,128,126,128,129,128,128,128,0
9154,131,128,126,128,127,128,127,127,0
9157,129,128,129,130,126,127,127,126,0
9160,125,126,128,129,126,127,127,126,0
9163,126,128,126,127,132,128,129,129,0
9167,132,128,128,127,128,128,128,128,0
9170,130,128,127,128,128,130,129,129,0
9173,126,127,127,129,126,125,127,127,0
9178,124,127,126,129,130,129,127,128,0
9181,131,129,127,127,128,127,131,129,0
9186,133,128,128,128,126,127,127,127,0
9190,130,127,131,129,125,126,127,126,0
9193,123,126,127,127,129,127,128,129,0
9196,132,129,126,127,128,128,128,128,0
9199,132,128,129,128,130,127,129,128,0
9203,129,126,127,127,127,128,128,129,0
9206,124,127,126,127,127,128,128,129,0
9209,130,127,127,128,127,128,126,127,0
9212,130,127,127,129,125,126,127,125,0
9215,126,128,128,130,126,127,128,127,0
9221,122,127,127,128,131,128,129,129,0
9224,130,127,129,128,129,128,127,128,0
9229,130,127,126,128,129,128,129,128,0
9235,120,127,126,126,128,127,127,127,0
9238,127,126,127,128,129,128,128,128,0
9240,126,128,127,127,129,128,129,128,0
9253,126,126,126,126,128,127,128,127,0
9258,123,127,127,127,129,128,127,128,0
9261,128,127,128,128,129,127,128,128,0
9265,131,128,126,127,128,127,126,127,0
9268,120,128,127,130,126,127,127,126,0
9271,127,128,128,129,126,126,127,126,0
9274,124,127,128,129,125,127,127,128,0
9278,134,129,127,127,128,128,127,128,0
9281,133,128,127,126,129,127,127,127,0
9284,123,127,128,128,129,128,127,127,0
9287,119,126,127,127,128,127,127,128,0
9324,133,129,130,128,128,127,127,128,0
9333,128,128,127,127,128,128,127,127,0
9337,124,126,127,127,127,127,127,127,0
9341,123,126,130,126,126,128,126,128,0
9345,131,129,129,128,126,128,126,128,0
9391,130,128,130,129,126,126,127,126,0
9402,126,128,128,129,126,127,127,125,0
9411,124,127,128,129,126,127,130,129,0
9416,131,128,126,125,129,128,127,128,0
9419,133,129,128,127,128,128,128,128,0
9423,131,128,128,126,128,128,127,128,0
9426,124,126,127,128,130,128,129,129,0
9431,126,128,126,127,127,128,129,129,0
9437,128,127,127,126,126,128,129,127,0
9442,122,128,129,129,125,127,127,125,0
9445,124,127,128,129,125,127,127,127,0
9448,130,128,128,127,128,128,128,129,0
9451,131,128,128,127,128,128,127,128,0
9454,124,127,127,128,129,128,128,127,0
9458,121,126,128,129,127,127,126,127,0
9461,132,129,128,128,128,128,127,128,0
9464,131,129,127,126,129,128,127,128,0
9467,126,127,126,127,127,127,128,127,0
9471,129,127,128,129,128,128,128,129,0
9474,124,128,126,128,127,127,127,128,0
9477,133,128,129,128,127,128,126,127,0
9480,126,128,127,129,125,126,128,126,0
9484,127,127,128,129,125,127,127,127,0
9487,125,127,127,126,128,128,128,129,0
9490,132,129,126,127,128,128,128,128,0
9494,130,128,126,127,128,128,127,127,0
9497,128,126,127,128,130,127,128,128,0
9500,129,128,129,127,128,127,126,128,0
9502,130,129,128,128,129,128,129,128,0
9505,129,128,129,130,126,127,127,125,0
9508,125,128,129,129,126,126,128,127,0
9510,122,126,129,128,130,128,129,128,0
9513,132,128,127,125,129,128,129,128,0
9521,130,128,130,129,126,126,128,126,0
9518,131,128,126,127,127,127,130,127,0
9526,124,127,128,127,129,128,127,128,0
9533,130,128,127,126,129,128,127,128,0
9538,129,128,127,126,129,128,128,127,0
9541,131,125,131,128,128,127,127,128,0
9544,122,126,126,128,129,128,128,128,0
9547,129,129,126,127,127,128,128,129,0
9549,126,127,126,127,126,128,128,128,0
9552,129,127,127,129,125,126,128,126,0
9556,124,127,128,130,125,126,126,127,0
9561,133,129,128,127,129,128,128,128,0
9565,130,128,126,126,127,127,129,128,0
9568,128,126,126,127,127,128,128,127,0
9570,128,126,129,129,125,127,128,129,0
9573,131,128,126,126,128,127,126,127,0
9578,129,128,126,127,126,128,128,127,0
9582,123,127,127,129,126,127,127,126,0
9585,127,127,127,129,126,127,126,128,0
9588,133,129,127,128,130,128,126,128,0
9590,129,128,126,127,129,128,128,128,0
9594,130,128,127,127,126,128,131,127,0
9597,129,128,130,126,129,128,128,129,0
9601,127,129,126,127,128,128,129,128,0
9604,131,128,126,127,128,128,128,129,0
9607,121,127,128,130,125,126,127,126,0
9610,123,127,128,129,126,127,126,128,0
9613,129,128,126,127,129,128,128,128,0
9618,131,129,126,128,128,128,127,127,0
9620,127,126,128,128,127,128,128,126,0
9625,118,127,128,129,126,127,128,128,0
9629,129,128,127,125,128,128,129,129,0
9636,132,129,126,127,128,127,126,127,0
9639,128,126,127,126,126,128,126,127,0
9642,128,127,127,128,129,128,127,129,0
9646,124,127,128,128,129,128,127,128,0
9649,127,129,126,128,129,127,126,127,0
9651,129,127,128,128,125,126,127,126,0
9654,125,128,127,130,125,126,127,127,0
9657,125,127,127,128,129,128,128,128,0
9660,134,128,127,126,128,128,128,128,0
9663,128,128,128,128,128,127,127,127,0
9666,127,126,128,129,126,127,128,126,0
9669,125,127,129,125,129,128,127,128,0
9672,135,129,127,128,130,128,129,128,0
9675,127,127,125,128,128,127,127,127,0
9679,130,125,130,128,129,128,128,129,0
9682,126,127,126,127,127,128,128,129,0
9685,131,129,128,127,126,128,126,127,0
9688,128,128,129,128,128,128,127,127,0
9691,121,126,126,129,125,126,128,127,0
9693,124,128,128,130,125,126,127,127,0
9698,124,129,128,126,129,128,127,128,0
9701,126,127,128,129,129,126,127,126,0
9704,126,128,128,128,127,127,128,126,0
9707,123,127,126,127,129,128,128,129,0
9710,133,129,127,127,129,128,129,128,0
9714,127,128,126,125,128,128,129,128,0
9717,131,128,130,128,129,126,126,127,0
9721,128,126,129,127,128,128,126,128,0
9729,133,128,128,127,128,128,126,128,0
9732,129,129,129,126,128,128,127,127,0
9739,124,127,128,129,126,126,127,127,0
9742,120,127,128,128,129,128,128,128,0
9746,133,129,126,126,129,128,128,128,0
9749,130,128,127,126,127,128,127,128,0
9756,126,126,127,126,129,128,128,128,0
9759,127,125,127,127,129,128,129,128,0
9763,129,129,125,127,127,128,127,128,0
9767,127,127,127,127,125,128,129,128,0
9771,122,128,127,128,128,128,127,128,0
9775,119,127,128,129,129,128,127,128,0
9778,130,130,126,128,128,128,128,127,0
9781,131,128,128,128,128,127,127,125,0
9784,126,128,127,129,125,126,128,124,0
9788,125,128,127,129,125,127,128,128,0
9791,131,129,128,127,129,127,127,127,0
9794,130,127,131,125,128,127,127,126,0
9798,122,127,128,129,125,126,128,127,0
9801,121,126,128,127,128,128,128,129,0
9804,134,129,127,127,128,128,128,128,0
9808,133,129,127,125,129,127,127,127,0
9811,125,127,129,127,129,128,129,127,0
9815,122,127,128,129,126,127,129,128,0
9818,130,128,127,126,128,128,130,129,0
9821,131,128,126,126,129,127,129,129,0
9824,131,127,127,126,127,127,126,128,0
9835,117,126,127,129,129,128,128,128,0
9839,128,128,125,128,128,128,128,129,0
9842,128,129,128,128,127,127,127,128,0
9846,125,128,128,130,125,126,127,125,0
9849,124,127,128,129,124,127,127,127,0
9853,129,128,126,127,130,128,128,129,0
9856,131,128,126,126,129,128,129,129,0
9859,125,127,127,127,131,128,129,128,0
9862,124,126,127,128,128,128,126,128,0
9867,128,128,127,126,128,128,128,129,0
9869,128,128,126,127,127,127,125,127,0
9872,130,127,127,127,126,127,128,128,0
9875,121,127,126,127,126,128,127,127,0
9877,129,128,127,127,125,128,127,128,0
9880,132,128,127,128,124,128,126,128,0
9883,127,127,127,127,124,128,128,128,0
9886,119,127,129,129,126,126,128,126,0
9890,125,127,127,129,125,127,127,129,0
9893,130,128,126,125,128,128,126,128,0
9896,134,126,130,126,129,127,127,127,0
9899,124,127,128,129,125,126,128,128,0
9902,123,126,128,127,130,129,129,128,0
9905,132,128,129,125,129,128,128,129,0
9910,130,128,127,127,126,128,128,127,0
9914,129,124,129,127,129,128,128,128,0
9917,120,126,127,127,128,127,128,129,0
9920,133,129,128,128,128,128,126,127,0
9924,128,128,131,128,129,128,126,126,0
9927,125,127,128,129,127,127,127,126,0
9931,125,127,127,127,128,128,127,128,0
9938,133,129,129,128,129,129,128,128,0
9943,130,127,127,125,128,129,129,128,0
9948,118,126,127,126,129,128,129,129,0
9951,125,127,127,128,127,127,127,128,0
9954,132,129,129,128,127,127,126,128,0
9956,131,128,128,128,125,126,128,126,0
9960,123,128,129,129,126,127,127,125,0
9964,122,124,130,127,129,127,127,128,0
9967,131,129,129,126,129,128,127,128,0
9970,132,127,128,127,128,129,129,128,0
9973,125,127,127,127,128,128,126,127,0
9976,127,127,130,128,128,128,128,128,0
9980,129,129,127,128,128,128,128,128,0
9983,125,128,127,128,129,128,128,127,0
9987,129,127,127,128,129,127,128,128,0
9990,128,125,129,129,125,125,127,127,0
9994,125,128,127,129,126,126,126,127,0
9997,126,128,126,126,128,128,129,128,0
10000,127,127,127,127,127,128,128,127,0
10002,130,128,127,125,130,128,130,129,0
10007,129,129,126,127,127,128,128,128,0
10010,130,127,126,126,129,128,128,127,0
10014,126,127,128,128,129,128,128,126,0
10017,127,127,128,129,126,126,127,126,0
10020,126,126,130,126,128,127,126,128,0
10023,130,129,128,126,130,128,128,127,0
10028,125,127,127,127,126,128,126,127,0
10033,126,126,128,126,129,128,127,127,0
10037,124,129,127,126,129,127,127,129,0
10040,124,127,127,127,128,128,128,127,0
10043,126,128,127,129,125,127,128,125,0
10046,124,127,127,129,125,127,127,126,0
10049,125,127,126,125,129,128,128,128,0
10052,133,129,129,125,130,128,128,128,0
10055,127,127,127,125,129,129,131,129,0
10057,118,126,128,128,128,128,127,128,0
10060,129,128,126,128,130,128,129,129,0
10064,131,128,126,128,127,127,128,128,0
10067,127,127,128,129,125,126,127,126,0
10070,123,126,128,130,126,127,127,126,0
10074,125,128,126,127,128,128,128,128,0
10078,133,128,126,128,128,128,126,128,0
10081,131,128,128,128,128,128,129,128,0
10085,120,125,127,126,128,128,127,127,0
10088,127,128,129,128,128,128,127,128,0
10092,125,128,127,126,129,128,128,128,0
10095,127,127,127,126,129,128,129,127,0
10098,128,127,128,128,127,128,128,128,0
10101,126,128,129,128,129,127,126,128,0
10104,131,128,129,128,128,128,127,127,0
10107,131,128,130,129,127,126,127,124,0
10111,130,127,127,129,126,126,128,126,0
10114,126,126,128,126,128,128,128,128,0
10117,132,129,127,127,127,128,127,127,0
10120,130,128,128,127,127,130,128,128,0
10124,126,127,127,125,128,128,126,127,0
10132,128,127,129,125,127,128,126,128,0
10136,132,128,128,128,129,128,126,127,0
10141,130,128,128,128,125,128,127,127,0
10144,128,127,128,128,126,126,128,126,0
10147,124,127,127,129,125,127,127,129,0
10150,130,129,130,126,129,128,127,128,0
10154,128,127,126,128,131,128,127,127,0
10157,123,127,127,129,127,127,128,126,0
10160,124,128,127,128,130,128,128,129,0
10163,134,129,128,128,129,128,127,128,0
10166,132,128,128,126,129,128,127,127,0
10169,127,125,128,126,128,127,127,127,0
10172,118,126,128,129,126,128,126,127,0
10176,134,129,128,127,128,128,126,128,0
10179,126,128,127,125,129,127,127,127,0
10182,125,128,128,129,126,126,128,126,0
10187,125,127,127,127,130,128,128,128,0
10190,132,128,126,125,129,128,128,129,0
10192,131,128,127,127,127,128,126,127,0
10202,127,127,128,128,128,128,127,128,0
10207,120,125,127,128,128,128,128,129,0
10210,131,128,128,127,127,127,128,128,0
10213,130,128,127,129,127,127,127,127,0
10217,127,128,129,128,127,128,127,128,0
10220,124,127,126,129,129,128,129,128,0
10223,131,129,129,128,125,127,127,128,0
10227,128,128,129,129,126,126,127,127,0
10231,127,128,127,129,125,126,128,125,0
10236,124,128,128,129,125,127,127,127,0
10240,130,128,126,125,128,128,128,128,0
10247,133,129,127,126,126,128,131,127,0
10251,122,127,129,128,124,128,130,126,0
10254,127,125,128,127,127,127,126,127,0
10257,130,128,127,127,128,128,129,129,0
10260,132,128,126,127,127,128,126,127,0
10263,131,128,127,126,128,127,129,127,0
10267,123,126,127,129,126,126,127,126,0
10270,126,128,126,125,129,128,129,129,0
10274,132,128,126,127,128,127,128,128,0
10277,131,128,131,128,129,128,129,129,0
10281,123,126,127,129,125,127,127,128,0
10284,128,127,126,127,128,128,127,128,0
10287,133,129,129,128,124,128,128,128,0
10290,127,128,127,128,129,128,127,127,0
10293,122,127,129,128,125,128,128,129,0
10297,124,128,127,128,128,127,129,128,0
10301,131,129,128,128,129,128,128,128,0
10304,125,127,130,130,125,126,128,125,0
10308,127,127,127,129,126,127,127,126,0
10311,124,127,128,128,131,128,129,128,0
10314,134,128,127,125,129,128,127,127,0
10318,129,128,130,128,127,128,127,128,0
10322,128,126,126,129,126,126,127,127,0
10325,124,127,127,127,130,128,128,128,0
10328,132,129,128,127,129,128,125,128,0
10330,129,126,130,128,128,128,127,127,0
10334,126,127,126,127,127,128,128,128,0
10337,126,128,127,127,126,127,127,129,0
10340,129,128,128,128,126,128,126,127,0
10346,133,128,127,128,125,128,126,127,0
10352,122,127,128,128,126,127,128,126,0
10356,124,128,128,129,125,128,127,128,0
10359,131,129,127,127,128,128,126,127,0
10363,132,129,131,128,125,128,127,127,0
10366,130,126,127,128,129,128,128,126,0
10369,126,128,130,128,129,127,128,128,0
10372,131,129,127,127,129,128,128,129,0
10375,125,128,126,128,125,128,127,127,0
10378,125,127,127,129,126,126,128,126,0
10381,124,127,127,130,125,128,129,128,0
10385,131,129,129,128,129,128,129,129,0
10388,133,128,127,126,129,127,126,128,0
10391,126,125,130,128,129,128,126,127,0
10394,121,126,130,126,129,128,127,129,0
10398,126,128,126,126,129,128,129,128,0
10401,131,128,128,127,127,127,127,127,0
10405,127,127,128,128,127,128,128,128,0
10409,127,127,129,128,129,128,127,128,0
10412,129,128,127,127,128,128,129,129,0
10415,125,128,127,127,128,128,128,128,0
10418,118,127,129,130,126,126,127,125,0
10421,124,128,128,129,125,127,128,126,0
10423,127,127,126,126,129,128,129,128,0
10426,132,128,127,127,128,128,128,126,0
10429,124,126,128,130,126,126,127,126,0
10436,124,127,127,128,126,127,129,128,0
10439,132,128,126,127,129,128,127,129,0
10442,134,128,129,128,129,128,127,128,0
10447,128,126,129,128,129,128,129,127,0
10450,119,126,127,129,128,128,127,128,0
10453,130,128,126,128,129,127,127,128,0
10458,132,128,129,126,129,128,128,129,0
10462,125,127,127,128,128,128,126,128,0
10466,119,126,127,127,127,128,128,128,0
10469,133,128,127,128,126,128,127,128,0
10472,129,128,129,129,128,128,127,129,0
10475,130,127,127,127,126,128,128,128,0
10478,116,127,127,130,125,127,127,126,0
10482,122,128,127,125,131,128,127,128,0
10485,131,128,127,127,128,128,127,128,0
10489,129,127,127,127,127,127,127,127,0
10492,129,126,127,128,127,128,125,127,0
10495,124,128,127,127,128,128,127,128,0
10498,124,129,127,126,129,128,127,128,0
10500,128,128,127,128,129,128,129,127,0
10503,127,125,127,130,125,126,128,126,0
10506,125,129,128,129,125,127,126,127,0
10509,133,130,128,127,128,127,127,127,0
10512,128,128,129,128,125,127,126,126,0
10515,124,127,128,129,127,127,127,127,0
10517,130,129,129,125,129,128,127,128,0
10521,133,129,127,125,129,127,127,127,0
10524,130,126,129,128,127,128,126,127,0
10527,119,126,127,127,126,127,126,127,0
10531,129,127,128,127,127,127,126,128,0
10534,130,129,128,127,128,127,126,128,0
10537,126,128,127,128,129,128,129,126,0
10540,124,128,128,130,125,127,127,126,0
10545,124,127,127,128,130,128,127,128,0
10548,130,129,127,126,129,128,128,129,0
10551,129,128,126,126,127,128,130,128,0
10554,125,125,129,130,126,126,128,126,0
10558,125,127,128,129,125,129,130,129,0
10564,131,129,127,125,129,128,128,128,0
10568,130,129,127,127,129,127,126,127,0
10571,127,127,127,125,128,128,131,127,0
10575,129,126,130,126,127,129,127,128,0
10578,128,129,127,127,129,129,128,128,0
10581,123,128,127,128,129,127,127,126,0
10584,125,128,127,129,126,127,127,126,0
10587,122,127,127,127,131,128,129,129,0
10590,131,129,127,125,128,129,128,128,0
10593,133,128,128,127,128,127,126,125,0
10597,120,127,127,128,125,127,127,127,0
10600,119,124,127,125,129,128,130,129,0
10603,133,129,126,127,128,128,128,129,0
10606,130,128,128,127,128,128,126,127,0
10608,126,126,127,128,127,127,127,127,0
10611,119,127,127,129,126,127,127,126,0
10614,124,127,128,127,128,128,127,129,0
10618,132,128,128,128,129,128,127,128,0
10622,130,128,127,127,127,128,128,127,0
10625,121,126,128,129,126,126,127,127,0
10628,125,128,129,128,129,128,128,127,0
10631,130,128,127,126,129,128,129,128,0
10634,129,127,127,127,127,127,128,127,0
10638,123,126,127,127,127,128,127,128,0
10641,126,128,129,128,128,127,126,128,0
10644,128,128,128,126,129,128,126,128,0
10648,125,127,128,127,128,128,128,128,0
10650,127,126,128,130,125,126,127,126,0
10655,125,128,128,128,126,127,130,129,0
10658,135,129,126,127,128,127,126,127,0
10661,129,126,130,128,129,127,128,127,0
10668,125,128,128,129,126,126,127,126,0
10672,126,128,126,127,129,129,127,128,0
10674,131,128,126,127,130,128,129,128,0
10677,129,126,128,128,125,127,127,127,0
10680,123,126,127,129,126,128,128,128,0
10682,129,128,129,127,130,128,128,128,0
10687,131,129,127,125,127,128,130,129,0
10690,128,128,127,127,127,128,126,127,0
10693,130,125,131,127,129,127,127,128,0
10696,127,128,129,128,128,128,127,128,0
10699,129,128,128,128,129,128,127,128,0
10702,126,127,126,129,125,126,127,126,0
10705,125,127,127,130,126,127,127,126,0
10707,124,127,127,126,129,128,126,128,0
10710,133,129,128,127,128,128,127,128,0
10713,130,127,126,126,128,128,128,128,0
10715,123,127,127,127,128,127,126,126,0
10718,122,127,128,128,128,128,126,128,0
10721,133,129,126,127,128,128,128,128,0
10724,129,128,129,127,129,127,128,126,0
10728,124,127,127,129,125,126,127,127,0
10732,122,127,129,127,129,128,126,128,0
10736,133,129,127,127,128,127,127,127,0
10739,132,128,128,127,128,128,127,127,0
10744,124,126,126,128,129,128,129,128,0
10748,126,128,127,128,126,128,126,128,0
10751,132,129,129,128,128,128,128,128,0
10754,129,128,127,127,128,128,127,127,0
10757,126,127,127,129,126,126,126,126,0
10760,124,127,128,129,126,126,127,127,0
10764,132,129,128,128,129,128,127,128,0
10770,131,128,129,128,129,127,128,127,0
10777,131,127,126,127,127,128,128,127,0
10780,125,126,129,128,129,128,127,127,0
10783,133,129,128,127,128,128,126,127,0
10786,128,129,127,127,125,128,127,128,0
10788,118,128,127,129,126,127,128,125,0
10791,125,127,127,129,126,127,127,128,0
10794,133,128,127,127,129,127,126,128,0
10797,132,129,130,128,128,127,126,127,0
10801,132,127,129,128,129,128,127,128,0
10804,127,128,128,128,126,128,129,129,0
10807,129,129,125,127,127,128,127,128,0
10811,128,129,127,128,128,129,128,129,0
10814,123,127,127,127,128,129,128,126,0
10817,126,128,127,129,125,127,127,127,0
10820,124,127,129,125,129,128,127,128,0
10823,132,129,130,126,129,128,128,128,0
10826,125,125,130,126,128,128,127,127,0
10829,126,127,127,127,125,128,128,128,0
10832,131,128,127,127,126,127,126,127,0
10835,133,128,129,128,128,127,126,127,0
10837,128,127,128,129,126,126,127,125,0
10842,124,127,128,129,126,126,128,126,0
10845,124,128,126,126,127,128,130,128,0
10848,131,129,126,127,128,128,127,127,0
10851,129,126,128,128,128,128,129,128,0
10854,122,126,127,128,127,127,128,128,0
10857,132,129,127,126,129,127,129,129,0
10860,126,127,126,127,125,127,127,128,0
10863,120,127,128,129,126,126,128,125,0
10866,124,128,128,129,126,126,127,127,0
10870,130,128,128,127,128,128,128,128,0
10875,134,128,127,127,128,128,127,128,0
10880,132,127,128,126,127,128,127,127,0
10883,127,124,128,129,126,127,129,128,0
10886,130,128,127,128,129,127,130,128,0
10891,132,129,126,127,127,127,128,128,0
10893,131,128,131,127,129,128,125,127,0
10896,126,127,128,129,125,126,127,126,0
10900,125,127,128,129,125,128,128,129,0
10903,131,129,129,126,129,128,127,128,0
10906,127,128,127,127,128,128,128,128,0
10910,120,127,128,128,127,127,126,128,0
10913,127,127,126,126,129,128,128,129,0
10916,127,129,126,127,126,127,126,128,0
10920,130,128,129,128,126,128,126,127,0
10923,127,127,129,129,126,126,128,126,0
10926,124,128,128,129,125,127,127,128,0
10931,134,129,126,126,129,128,128,128,0
10934,131,128,128,127,127,128,129,127,0
10937,132,127,128,128,129,128,126,127,0
10940,122,127,128,128,128,128,127,128,0
10942,127,128,128,126,129,128,130,128,0
10945,130,127,127,128,127,128,127,127,0
10949,124,126,127,126,129,128,128,128,0
10952,120,127,129,128,128,128,127,128,0
10955,127,128,129,127,128,128,128,127,0
10960,127,127,127,129,125,126,128,125,0
10964,129,127,128,129,126,126,127,127,0
10968,123,127,128,129,125,128,127,129,0
10971,131,129,129,125,128,128,126,128,0
10974,129,128,127,125,128,128,126,127,0
10980,125,127,127,128,126,127,126,127,0
10986,128,127,128,125,127,128,127,128,0
10991,131,128,127,127,128,127,126,127,0
10994,130,128,127,126,128,127,130,126,0
10997,122,128,128,129,126,126,127,126,0
11000,123,127,128,128,128,128,127,128,0
11003,132,128,126,127,127,128,127,127,0
11005,128,126,130,126,129,129,127,127,0
11008,122,126,129,126,127,128,128,126,0
11011,122,127,128,129,125,126,127,127,0
11014,132,128,126,127,128,128,128,128,0
11017,131,128,127,128,129,128,129,129,0
11021,120,127,126,126,130,128,129,127,0
11025,127,127,129,128,128,128,129,128,0
11028,130,129,126,128,127,128,128,128,0
11031,127,128,129,130,126,126,127,126,0
11036,126,128,128,130,126,127,128,126,0
11044,126,127,128,129,126,128,128,127,0
11048,134,128,128,125,128,128,127,128,0
11052,130,128,126,125,128,128,128,128,0
11055,128,127,127,128,129,127,127,127,0
11058,125,125,130,128,129,128,128,128,0
11062,128,128,126,129,128,128,129,129,0
11065,126,128,126,127,127,127,128,128,0
11068,128,127,127,128,129,127,127,127,0
11072,119,127,126,128,127,128,128,129,0
11075,130,128,127,127,129,128,128,129,0
11079,122,129,129,128,127,128,126,127,0
11082,129,127,127,128,125,128,127,126,0
11085,128,127,128,130,126,126,127,127,0
11089,124,127,127,128,129,128,127,127,0
11095,133,129,130,126,129,128,128,128,0
11101,126,127,127,127,129,128,127,127,0
11107,123,127,126,130,125,126,128,127,0
11110,124,125,128,125,129,128,127,128,0
11114,131,128,126,128,129,128,127,127,0
11117,128,128,128,128,132,127,128,128,0
11120,121,127,128,127,126,127,128,127,0
11123,122,128,126,127,129,128,128,128,0
11127,134,128,128,128,129,128,126,128,0
11130,130,128,127,127,126,128,127,128,0
11133,120,127,128,126,125,127,128,126,0
11136,122,128,128,129,125,128,128,128,0
11139,130,129,126,126,128,128,128,128,0
11141,129,128,128,129,127,127,126,127,0
11144,128,127,128,130,126,126,127,125,0
11147,123,127,128,128,128,128,127,128,0
11150,132,129,129,126,129,128,129,128,0
11154,127,127,126,125,128,128,128,128,0
11157,126,128,129,128,130,127,127,126,0
11159,124,126,127,129,125,128,127,128,0
11162,130,128,127,127,131,128,129,129,0
11165,130,128,126,126,126,128,127,127,0
11168,130,128,128,128,129,128,129,128,0
11171,128,127,126,127,126,127,127,128,0
11174,130,129,128,128,128,128,127,128,0
11177,126,128,127,126,129,128,129,128,0
11180,125,127,128,130,125,126,127,126,0
11183,125,127,128,129,126,126,126,128,0
11187,133,129,128,127,128,128,127,127,0
11190,131,129,129,128,128,127,127,127,0
11193,129,126,129,126,125,129,127,126,0
11197,121,127,128,129,126,127,127,128,0
11204,132,129,126,127,128,128,127,128,0
11207,132,129,130,126,129,127,128,127,0
11210,122,126,128,126,128,128,128,128,0
11213,119,128,130,126,128,128,127,127,0
11216,127,129,127,126,129,128,127,128,0
11219,127,128,126,127,128,128,128,128,0
11222,128,127,127,126,129,128,128,128,0
11224,121,127,128,128,129,128,126,128,0
11227,131,128,128,127,126,128,127,127,0
11230,130,128,128,129,128,128,128,125,0
11236,123,127,127,128,126,127,126,127,0
11232,127,127,127,129,126,126,128,125,0
11239,124,128,126,126,129,128,128,128,0
11242,132,128,127,125,132,128,128,128,0
11246,128,127,128,127,129,128,126,127,0
11249,123,126,126,127,129,129,126,127,0
11252,128,129,129,126,129,127,128,128,0
11255,127,128,126,127,128,127,127,128,0
11259,123,127,128,128,126,127,128,127,0
11262,122,128,128,129,125,126,127,127,0
11265,125,127,127,127,131,128,128,129,0
11268,131,128,127,126,127,128,128,128,0
11271,130,128,130,128,128,127,125,127,0
11274,123,126,127,128,129,128,126,128,0
11277,131,128,126,128,127,128,126,128,0
11280,130,128,128,129,126,128,126,125,0
11282,124,128,128,130,126,126,127,126,0
11285,125,128,127,128,126,127,127,128,0
11290,130,128,128,126,128,128,127,128,0
11293,134,129,129,127,129,128,128,129,0
11296,129,128,127,127,127,127,128,128,0
11301,121,127,127,128,125,128,126,127,0
11307,126,128,128,126,129,128,129,129,0
11311,132,129,127,127,127,127,127,128,0
11315,131,128,128,128,125,128,128,128,0
11317,129,127,127,127,126,127,128,127,0
11320,124,127,128,129,124,128,127,129,0
11324,131,128,127,127,128,128,127,127,0
11328,130,128,127,128,129,127,127,128,0
11331,127,126,128,130,125,126,128,127,0
11334,125,128,127,129,125,127,128,129,0
11338,131,128,126,127,129,128,129,129,0
11340,126,128,126,127,128,128,129,127,0
11346,122,127,127,128,125,127,126,127,0
11352,124,129,131,128,129,127,127,128,0
11356,133,128,126,127,127,127,127,128,0
11360,133,129,128,128,128,127,127,126,0
11363,123,127,128,129,126,126,127,125,0
11366,123,128,128,129,126,128,127,128,0
11370,130,129,127,128,129,128,128,128,0
11374,124,126,131,128,127,128,127,126,0
11378,126,127,128,129,128,128,127,128,0
11381,127,126,127,128,128,128,127,129,0
11384,127,128,126,127,127,128,128,128,0
11388,129,128,129,128,125,128,126,127,0
11391,122,128,128,129,126,126,128,126,0
11394,125,127,127,129,125,126,127,127,0
11398,132,129,127,127,129,127,129,129,0
11402,134,128,127,127,128,127,126,127,0
11405,128,126,129,128,129,126,127,126,0
11408,123,128,128,129,126,127,129,129,0
11412,131,128,126,127,129,128,126,127,0
11416,129,126,130,126,129,128,127,127,0
11423,125,127,127,128,131,128,130,127,0
11429,120,127,128,129,125,126,127,129,0
11432,132,129,125,125,128,128,128,129,0
11435,131,128,127,127,127,128,127,127,0
11439,130,127,127,128,124,127,129,128,0
11442,125,126,125,127,126,128,129,128,0
11445,129,128,126,127,127,127,126,128,0
11449,132,128,128,128,130,127,126,127,0
11452,127,127,129,128,129,128,127,127,0
11455,117,126,128,130,126,127,127,126,0
11459,126,128,127,129,124,128,127,128,0
11462,133,128,129,127,127,128,127,126,0
11465,132,127,128,128,128,127,127,127,0
11468,125,126,126,128,128,127,127,126,0
11472,127,128,127,129,126,127,126,127,0
11477,126,128,127,127,129,128,131,128,0
11480,129,127,126,126,128,128,129,127,0
11483,125,127,128,128,127,126,127,126,0
11486,125,127,127,125,129,128,128,129,0
11490,131,129,127,128,129,128,127,127,0
11493,128,128,131,126,130,128,128,128,0
11497,124,127,126,128,129,128,129,128,0
11500,129,127,126,127,128,128,128,129,0
11503,128,129,127,127,126,128,127,127,0
11506,129,128,128,126,129,127,127,128,0
11509,122,127,127,129,125,126,127,126,0
11513,123,129,128,128,130,128,128,128,0
11516,131,129,127,128,129,128,127,128,0
11518,123,126,129,128,126,127,125,126,0
11523,131,126,129,128,127,128,127,128,0
11530,125,127,126,128,128,128,128,129,0
11536,126,129,126,128,129,128,128,128,0
11544,122,128,129,128,130,127,128,128,0
11548,128,126,127,128,124,128,129,128,0
11551,129,127,127,128,128,127,129,127,0
11554,134,129,128,128,128,128,128,128,0
11557,122,128,128,129,126,127,127,126,0
11561,125,127,127,129,126,127,129,126,0
11564,124,127,128,128,126,127,128,128,0
11567,131,129,128,128,131,128,128,128,0
11571,128,127,125,127,129,128,128,128,0
11574,126,127,127,127,130,128,130,128,0
11578,125,127,127,127,129,128,126,128,0
11581,131,128,126,127,127,128,129,128,0
11585,122,128,126,127,127,128,128,128,0
11588,125,127,128,128,128,128,128,127,0
11591,123,128,128,130,125,126,127,126,0
11593,130,129,128,128,128,128,127,128,0
11597,132,128,128,128,131,127,129,128,0
11600,127,128,130,126,129,128,127,125,0
11603,123,127,126,128,127,127,129,128,0
11606,130,129,129,128,127,128,126,128,0
11608,120,128,127,126,129,128,125,127,0
11611,120,127,126,127,126,128,129,126,0
11613,127,127,128,130,125,126,128,126,0
11616,126,128,127,128,131,128,129,128,0
11619,130,128,127,126,127,128,127,126,0
11623,125,128,127,129,126,127,127,126,0
11626,125,127,127,128,126,128,127,129,0
11629,134,129,126,127,129,128,127,129,0
11631,132,128,127,125,128,128,127,127,0
11637,128,126,128,126,127,127,127,127,0
11644,126,126,130,128,126,127,127,128,0
11648,129,129,127,126,128,127,126,127,0
11655,131,129,129,127,127,128,126,128,0
11658,126,127,129,126,131,129,127,128,0
11662,131,127,129,128,126,127,126,128,0
11665,129,129,126,126,128,127,127,128,0
11672,125,128,127,128,127,128,126,127,0
11679,130,127,128,128,126,128,127,127,0
11685,123,127,127,129,125,127,128,127,0
11689,125,128,128,129,126,128,127,128,0
11692,131,128,127,127,129,128,129,129,0
11695,127,127,126,127,126,128,127,128,0
11699,130,127,128,128,128,128,128,128,0
11702,124,128,126,127,128,128,128,129,0
11706,132,128,127,128,128,128,127,128,0
11709,125,128,128,128,127,127,128,127,0
11713,124,126,126,129,129,128,127,128,0
11718,124,128,125,128,128,127,128,128,0
11722,131,128,128,128,127,127,127,125,0
11727,127,128,128,130,126,126,128,126,0
11730,125,126,128,128,127,126,126,125,0
11733,123,127,126,124,129,128,127,128,0
11737,133,129,129,128,129,128,129,129,0
11740,125,127,127,127,129,129,128,126,0
11744,127,128,128,129,128,128,126,127,0
11748,128,127,131,126,129,128,127,128,0
11751,130,129,129,127,129,127,127,128,0
11754,128,127,127,126,130,127,127,128,0
11757,131,125,127,129,126,127,127,126,0
11760,124,127,127,129,125,128,127,128,0
11764,131,129,127,126,129,128,127,128,0
11768,131,128,130,128,125,128,127,127,0
11771,126,127,128,130,126,126,127,126,0
11773,123,127,129,127,131,128,128,129,0
11777,130,128,127,125,129,128,129,129,0
11780,128,128,126,126,129,128,128,128,0
11783,128,128,127,127,127,128,128,127,0
11786,129,127,126,127,126,128,129,129,0
11788,127,129,125,127,127,128,126,128,0
11791,132,128,128,130,125,127,127,126,0
11794,126,127,127,129,126,126,128,126,0
11796,125,128,127,126,129,128,127,128,0
11799,131,129,127,127,129,128,129,128,0
11803,130,128,128,126,128,128,127,127,0
11806,130,126,127,126,128,127,126,127,0
11809,126,127,129,127,126,128,127,127,0
11812,129,129,128,128,128,128,128,129,0
11816,128,127,127,128,128,128,129,127,0
11819,128,128,128,128,129,127,127,127,0
11822,124,127,128,129,125,127,127,127,0
11825,125,128,128,127,129,128,127,128,0
11828,131,128,127,126,128,128,127,128,0
11831,128,126,129,126,128,127,127,127,0
11834,124,127,127,127,125,127,128,128,0
11837,128,129,127,128,128,128,129,129,0
11840,130,126,127,129,128,128,128,128,0
11843,129,126,127,128,129,127,128,125,0
11848,127,128,127,130,126,126,128,126,0
11850,124,128,128,127,128,128,128,128,0
11853,134,129,127,126,128,128,127,127,0
11856,130,126,128,128,127,128,126,128,0
11861,125,127,126,128,129,128,129,129,0
11866,126,127,126,127,128,128,129,129,0
11870,129,127,127,129,128,128,129,128,0
11872,128,127,128,128,125,128,128,128,0
11875,125,128,128,129,126,127,127,127,0
11878,124,128,128,125,129,128,128,128,0
11881,131,128,127,127,129,128,130,128,0
11884,128,127,127,127,127,128,125,127,0
11890,118,125,128,129,125,126,127,126,0
11893,124,127,129,125,129,128,128,129,0
11896,131,129,127,128,129,128,128,128,0
11899,130,127,128,127,126,127,126,127,0
11902,122,127,127,129,126,126,128,127,0
11906,125,126,127,127,129,128,128,129,0
11910,133,129,127,126,128,128,128,128,0
11914,130,128,127,126,127,128,126,128,0
11916,124,125,129,125,129,128,127,128,0
11920,127,128,127,128,129,128,128,129,0
11922,132,128,128,128,126,128,126,127,0
11926,128,127,128,128,125,128,127,128,0
11929,129,127,128,128,127,127,127,127,0
11931,129,127,126,127,127,128,129,129,0
11934,132,129,126,127,128,128,128,127,0
11937,124,127,128,129,126,126,127,125,0
11947,125,127,128,128,126,127,127,126,0
11950,123,127,127,127,130,129,128,128,0
11954,131,128,129,127,130,128,127,128,0
11969,126,127,128,129,126,127,127,126,0
11961,126,127,126,127,129,128,130,128,0
11976,124,128,127,126,131,128,128,129,0
11980,132,129,127,127,128,128,128,128,0
11984,132,128,128,127,126,128,127,127,0
11987,130,127,129,128,128,128,126,127,0
11991,123,127,126,126,128,128,128,128,0
11995,131,128,128,128,128,127,125,128,0
11999,131,128,129,128,127,127,129,126,0
12005,125,127,128,129,125,127,127,126,0
12009,123,127,127,128,129,128,127,128,0
12012,131,129,127,126,129,128,127,128,0
12016,131,128,127,126,128,128,128,127,0
12019,126,127,128,127,127,127,128,128,0
12022,126,127,128,128,125,127,126,128,0
12026,132,129,128,128,127,128,127,128,0
12029,125,127,127,126,129,128,127,128,0
12032,130,126,126,127,126,127,127,127,0
12036,124,128,128,130,125,126,127,126,0
12039,126,128,131,128,129,129,126,127,0
12043,132,128,128,127,128,127,127,127,0
12047,131,128,130,128,129,128,129,128,0
12049,124,126,128,126,129,128,128,129,0
12052,131,129,126,126,126,128,129,129,0
12057,126,127,127,127,127,127,128,128,0
12060,127,127,126,127,125,128,129,128,0
12063,118,127,127,129,125,126,127,126,0
12067,126,129,128,129,125,127,128,127,0
12070,125,126,128,126,130,129,126,127,0
12073,130,127,126,127,129,128,129,125,0
12077,119,126,127,129,126,127,131,130,0
12082,131,129,127,127,129,128,128,128,0
12094,133,129,128,126,129,128,127,128,0
12098,132,126,130,126,129,129,126,128,0
12101,119,126,127,129,126,127,128,127,0
12104,124,128,126,125,128,128,128,128,0
12108,134,129,127,127,129,127,126,127,0
12111,127,128,126,125,128,128,128,128,0
12115,124,126,127,129,130,128,129,129,0
12118,131,128,126,127,126,127,127,128,0
12131,132,129,128,126,126,128,127,128,0
12135,123,127,129,129,126,127,128,126,0
12140,124,127,128,129,125,127,127,127,0
12143,121,127,127,125,129,128,127,128,0
12146,133,128,126,128,130,128,129,128,0
12149,128,127,126,126,127,128,127,127,0
12153,124,126,127,128,129,128,127,128,0
12156,124,128,127,126,129,127,128,128,0
12159,129,129,127,126,128,128,129,128,0
12162,123,127,127,127,127,127,127,127,0
12165,125,125,128,129,125,127,128,126,0
12169,124,127,127,129,125,128,127,128,0
12172,133,128,128,128,128,128,126,127,0
12175,130,128,128,130,126,127,127,126,0
12178,122,126,127,129,127,127,127,128,0
12181,128,127,129,127,129,128,127,128,0
12184,134,129,128,126,129,128,127,128,0
12187,129,127,126,126,128,127,128,128,0
12197,131,127,128,129,126,126,127,126,0
12200,123,127,128,126,128,128,129,128,0
12203,133,129,127,126,130,128,129,128,0
12208,133,128,128,128,127,127,127,126,0
12216,128,127,127,128,128,127,128,128,0
12232,127,128,126,126,128,128,127,128,0
12223,121,127,130,126,129,128,128,128,0
12237,125,127,129,129,129,128,127,128,0
12241,130,127,128,128,129,127,127,127,0
12244,125,127,126,128,126,128,128,128,0
12247,128,128,127,128,126,127,129,128,0
12251,131,127,127,130,125,126,129,124,0
12254,128,127,128,129,126,127,128,125,0
12261,124,127,128,129,129,128,127,128,0
12270,130,128,126,125,128,128,127,128,0
12274,132,128,129,126,129,128,127,127,0
12277,125,126,126,128,128,128,128,128,0
12281,126,127,128,128,126,128,126,128,0
12285,130,129,127,127,126,128,128,128,0
12290,133,128,127,128,127,127,126,127,0
12294,118,127,127,130,125,126,127,126,0
12298,124,127,128,129,126,127,126,128,0
12301,133,126,129,126,128,128,128,129,0
12305,130,128,126,127,128,127,127,127,0
12309,127,125,128,128,129,128,128,126,0
12312,123,128,128,129,125,127,126,128,0
12316,132,129,128,127,128,128,126,128,0
12319,131,127,129,127,128,127,126,128,0
12322,128,127,128,127,128,127,126,127,0
12326,119,127,128,129,126,126,126,128,0
12329,133,129,128,127,129,127,127,128,0
12332,132,129,128,128,129,128,128,129,0
12335,122,126,130,127,129,128,127,128,0
12339,123,125,128,127,128,127,127,128,0
12345,131,128,129,128,128,127,128,128,0
12350,124,128,126,127,128,127,128,128,0
12354,127,126,128,128,128,128,128,128,0
12357,129,126,128,129,128,128,129,128,0
12360,131,128,126,128,127,127,128,128,0
12363,124,128,126,129,125,126,127,126,0
12366,124,128,128,130,126,126,127,126,0
12370,125,127,128,128,127,127,126,127,0
12373,122,128,128,126,128,128,127,127,0
12376,131,129,127,127,128,128,127,128,0
12379,130,127,125,128,128,128,130,127,0
12382,126,127,126,128,128,127,127,128,0
12385,128,128,127,127,128,128,127,128,0
12387,132,129,127,126,130,127,129,129,0
12396,121,127,127,128,125,127,127,127,0
12399,124,127,127,126,129,128,129,128,0
12402,128,127,127,127,126,127,126,128,0
12406,130,129,128,127,128,128,127,128,0
12410,120,128,128,129,128,127,127,128,0
12414,124,127,128,128,126,128,128,125,0
12417,127,129,127,129,125,126,127,127,0
12420,126,128,127,129,127,127,128,129,0
12432,128,127,126,127,129,130,128,127,0
12437,130,126,128,127,129,128,127,128,0
12441,126,127,126,127,127,128,127,128,0
12445,134,129,128,128,127,128,127,128,0
12449,132,128,131,129,126,126,127,126,0
12453,126,127,127,129,125,126,127,126,0
12457,126,128,127,127,128,128,130,128,0
12463,134,128,126,128,131,128,129,128,0
12467,130,128,126,125,128,128,127,126,0
12470,129,125,130,128,129,128,129,128,0
12474,125,127,126,127,127,128,126,128,0
12477,131,129,129,128,129,127,126,127,0
12481,129,128,128,128,128,128,127,128,0
12484,130,126,127,129,125,126,127,127,0
12488,124,128,128,129,125,128,126,128,0
12491,133,129,128,127,128,127,126,127,0
12494,131,128,129,128,129,128,129,127,0
12498,124,126,128,129,125,126,128,126,0
12501,124,126,128,128,130,128,128,128,0
12505,130,129,128,127,128,128,129,128,0
12508,133,128,127,127,127,128,127,128,0
12512,130,126,128,126,129,128,128,125,0
12515,117,127,127,128,131,127,128,128,0
12519,131,128,128,126,129,128,128,129,0
12522,128,127,127,128,128,128,128,128,0
12525,129,127,128,127,126,128,127,126,0
12529,123,127,129,129,125,126,126,127,0
12532,125,126,128,126,128,128,128,129,0
12535,132,129,129,127,128,127,126,127,0
12539,131,126,127,128,128,127,126,126,0
12542,125,128,127,128,126,127,126,128,0
