Start Recording
18,128,128,126,125,129,123,126,117,0
22,127,122,130,139,126,126,132,118,0
26,129,129,126,123,127,130,128,134,0
30,129,128,128,123,128,126,127,131,0
34,127,129,128,124,128,127,127,127,0
37,127,127,126,125,128,126,130,130,0
41,128,129,128,128,128,126,128,127,0
45,128,128,128,129,127,128,129,125,0
54,127,127,129,126,128,127,129,130,0
59,125,125,129,140,126,130,130,119,0
62,126,130,128,128,128,126,127,124,0
66,129,128,128,126,128,126,127,127,0
69,128,127,126,124,128,128,127,128,0
72,127,127,127,124,128,127,127,128,0
75,128,128,127,134,127,126,126,131,0
80,129,127,128,123,128,130,128,129,0
106,127,128,128,134,128,127,126,124,0
110,127,120,129,137,126,128,131,124,0
113,128,124,128,115,128,131,127,134,0
117,129,130,128,120,128,127,124,126,0
120,127,128,126,122,128,128,126,132,0
123,127,127,128,121,128,129,126,130,0
127,127,130,129,131,128,126,127,133,0
131,129,130,127,124,128,127,128,119,0
134,128,128,128,133,127,125,127,127,0
138,127,125,129,137,129,124,129,121,0
141,128,128,128,125,128,127,129,133,0
144,129,128,127,133,127,128,127,128,0
147,127,126,128,134,127,127,128,128,0
150,127,128,128,126,126,125,128,126,0
154,127,128,128,126,128,124,127,127,0
157,129,127,127,128,127,130,128,128,0
159,127,128,129,130,128,125,128,129,0
163,127,128,129,139,125,130,132,125,0
166,127,124,129,136,126,129,127,132,0
170,129,128,128,119,128,132,126,134,0
172,128,128,125,120,129,128,125,131,0
175,128,127,127,121,128,131,126,133,0
178,128,130,126,124,127,127,126,130,0
181,129,129,129,136,127,128,127,129,0
183,128,127,128,131,127,126,127,131,0
187,128,128,129,131,129,126,130,119,0
191,127,125,130,139,127,128,127,130,0
201,129,127,127,124,127,127,127,132,0
206,128,128,126,126,128,126,126,130,0
212,125,128,126,126,129,125,126,127,0
216,128,129,128,127,129,125,127,127,0
220,127,129,127,125,128,128,127,121,0
223,128,128,127,129,130,125,126,130,0
227,127,127,128,137,127,124,131,120,0
229,126,125,129,136,126,131,131,124,0
232,128,128,127,121,128,132,127,133,0
235,129,129,125,121,127,131,128,134,0
247,128,128,127,123,129,128,126,124,0
251,127,128,125,122,128,125,126,133,0
255,129,129,128,135,128,129,126,134,0
258,129,129,126,130,128,126,125,119,0
261,126,128,128,122,127,125,125,128,0
264,127,127,130,137,126,128,132,123,0
268,127,125,128,135,128,128,127,134,0
271,128,128,128,121,128,127,126,133,0
274,126,129,127,122,128,127,127,127,0
277,125,127,128,129,129,130,129,127,0
281,128,129,126,127,128,130,129,129,0
285,128,128,128,126,128,130,128,131,0
288,128,128,128,127,128,127,126,124,0
291,128,129,129,127,128,126,125,129,0
293,128,128,126,127,127,126,126,126,0
297,128,128,126,126,129,124,127,129,0
300,128,129,128,137,127,125,131,120,0
303,126,125,128,129,128,126,128,129,0
307,128,129,128,127,127,128,129,124,0
318,129,126,129,128,127,130,129,121,0
323,127,128,128,124,129,126,129,118,0
328,125,126,129,133,127,129,128,128,0
331,128,129,127,129,127,127,127,128,0
334,128,127,128,126,128,128,127,127,0
337,127,128,128,126,128,126,127,119,0
340,125,128,128,138,126,127,130,120,0
343,128,125,129,136,126,129,126,132,0
353,128,128,126,121,128,129,127,134,0
357,128,128,128,119,128,126,126,132,0
360,127,128,126,124,129,125,127,133,0
364,126,129,126,124,127,129,127,128,0
368,129,127,128,121,127,128,125,123,0
370,128,127,128,120,127,125,128,122,0
373,127,129,129,129,128,130,129,119,0
376,127,125,129,137,126,126,128,131,0
389,128,127,127,124,128,128,129,133,0
392,128,128,127,125,128,127,129,119,0
395,127,125,129,139,127,126,128,130,0
399,128,128,125,119,128,128,126,130,0
402,129,129,128,124,128,127,125,130,0
405,128,127,128,124,128,127,126,132,0
408,124,129,128,123,128,124,127,132,0
412,127,128,128,126,127,127,128,132,0
415,129,129,126,123,127,125,129,132,0
419,129,129,127,132,127,128,126,123,0
422,126,126,129,134,128,129,129,128,0
427,127,127,126,128,128,126,128,130,0
431,129,128,128,127,127,125,128,127,0
435,129,129,128,126,128,128,127,123,0
439,127,128,129,138,126,127,132,123,0
443,127,122,129,137,127,125,127,132,0
447,129,129,125,124,127,128,127,134,0
449,129,127,128,121,128,129,126,130,0
452,128,128,126,123,127,126,126,129,0
462,127,127,128,122,129,128,129,122,0
467,128,129,127,122,128,128,127,125,0
470,127,127,126,122,130,127,127,127,0
473,128,127,128,127,128,129,128,131,0
476,125,129,128,124,127,128,127,130,0
478,128,128,127,128,127,124,128,131,0
481,128,129,128,120,128,127,128,132,0
484,128,127,129,141,127,128,129,119,0
499,126,126,126,120,128,128,126,127,0
503,128,127,128,125,127,126,126,133,0
506,128,129,126,129,128,125,126,128,0
509,128,128,128,131,128,127,125,126,0
512,127,129,127,122,127,132,126,130,0
516,128,129,127,122,128,130,126,134,0
519,128,128,128,133,128,125,129,121,0
522,127,122,128,137,126,127,130,120,0
526,127,122,129,132,128,129,126,129,0
529,128,129,128,124,129,131,128,129,0
536,128,129,125,128,128,127,127,134,0
540,127,127,128,123,128,130,127,128,0
543,127,126,128,122,127,130,128,129,0
546,128,128,127,125,128,127,127,131,0
550,129,130,129,127,128,125,129,119,0
554,127,127,126,123,128,130,128,130,0
558,126,127,129,137,128,129,128,128,0
560,128,129,128,127,127,124,126,129,0
564,129,129,129,129,128,128,127,126,0
567,127,126,129,135,128,128,126,122,0
570,126,128,129,136,127,127,126,129,0
575,128,128,127,127,127,129,127,126,0
579,128,129,127,124,128,126,127,130,0
582,128,128,127,126,127,123,130,122,0
584,126,123,128,134,126,130,130,120,0
588,128,128,128,121,129,132,127,131,0
592,129,130,127,129,128,128,126,132,0
595,128,128,125,120,128,131,127,131,0
598,125,130,126,124,128,127,125,125,0
611,127,127,128,130,127,128,128,129,0
614,128,128,128,129,127,131,131,122,0
617,128,128,129,129,127,124,128,119,0
625,125,125,128,123,129,125,128,127,0
628,128,127,126,124,128,130,128,127,0
631,129,128,129,128,127,125,127,123,0
635,127,127,128,127,127,124,128,128,0
643,127,128,128,131,127,124,128,118,0
648,127,128,127,128,127,130,128,129,0
651,128,129,128,123,127,127,129,122,0
655,128,121,129,132,125,129,129,124,0
658,128,125,129,134,127,129,128,127,0
661,127,129,127,118,128,133,125,131,0
664,129,130,127,122,128,128,125,131,0
669,129,128,128,121,128,128,125,132,0
675,127,130,126,121,128,128,127,131,0
701,127,129,129,132,128,127,127,129,0
707,129,129,128,131,128,127,127,127,0
711,128,126,128,128,128,127,127,124,0
715,127,126,129,132,127,128,127,124,0
719,127,128,126,125,128,126,127,127,0
722,128,128,127,130,127,123,127,128,0
726,129,127,127,133,127,125,128,131,0
729,125,126,128,125,128,130,126,123,0
732,127,128,128,130,127,125,126,126,0
735,129,129,128,136,127,127,129,121,0
739,128,127,128,126,128,126,127,130,0
743,127,128,126,123,128,127,126,123,0
745,127,127,126,126,128,130,128,130,0
749,128,127,126,125,127,126,129,128,0
752,129,127,129,141,126,131,132,125,0
755,128,121,130,134,126,129,130,121,0
758,127,125,128,133,128,129,125,132,0
761,127,127,128,124,128,130,127,128,0
764,128,130,128,121,128,129,126,132,0
767,127,127,127,121,128,131,128,129,0
770,127,128,126,122,127,129,128,132,0
773,128,128,126,123,128,127,127,130,0
776,129,130,126,122,128,124,125,120,0
779,127,128,129,124,129,125,128,131,0
784,127,130,128,130,128,127,126,129,0
788,128,129,128,134,127,125,128,132,0
791,128,130,128,126,127,126,127,132,0
795,127,127,126,124,128,131,128,120,0
799,126,122,130,136,126,128,131,123,0
804,127,127,128,123,130,127,126,127,0
807,129,128,126,124,127,128,128,130,0
809,127,126,128,126,128,125,126,125,0
815,127,127,128,123,128,131,128,129,0
818,128,129,126,124,127,128,129,130,0
821,128,126,128,125,128,128,126,127,0
824,127,127,126,124,127,129,127,127,0
828,126,128,128,127,127,128,128,129,0
832,128,128,127,128,128,127,128,131,0
836,129,130,128,126,127,128,127,122,0
839,128,128,126,133,128,128,126,129,0
841,126,127,127,127,128,124,131,121,0
844,128,124,130,140,127,129,129,125,0
847,128,128,126,119,128,129,125,128,0
850,128,127,125,120,128,129,125,121,0
853,126,124,129,136,125,128,132,124,0
861,126,124,128,131,128,130,127,130,0
867,129,128,125,120,128,129,126,135,0
870,128,127,127,121,128,127,126,128,0
873,127,127,128,122,128,126,126,126,0
877,126,130,129,128,128,129,127,129,0
880,129,127,128,124,127,128,127,130,0
883,127,128,127,127,127,125,130,120,0
886,127,124,129,139,127,123,127,133,0
897,126,128,128,124,129,126,128,131,0
900,129,130,128,127,128,128,127,126,0
903,127,128,128,126,128,128,128,125,0
908,127,127,128,128,127,127,127,126,0
914,127,124,129,139,128,127,126,126,0
918,129,127,128,128,128,127,127,127,0
923,129,128,128,125,127,128,127,132,0
928,127,124,130,140,127,127,130,124,0
932,127,124,130,136,128,129,126,130,0
936,129,127,128,122,127,127,127,134,0
939,128,128,127,127,128,126,126,128,0
942,128,129,126,124,128,129,127,124,0
945,127,127,125,129,127,129,128,129,0
949,129,128,128,128,128,128,127,133,0
952,128,127,126,125,127,122,127,128,0
955,128,128,130,140,126,128,132,122,0
958,127,122,129,136,127,129,127,130,0
961,127,129,128,132,128,128,127,132,0
964,127,128,126,123,129,125,125,131,0
972,127,129,128,124,128,129,126,129,0
975,127,128,126,128,127,131,128,129,0
980,128,127,127,123,127,128,127,130,0
983,128,129,128,119,128,127,126,131,0
986,127,127,128,128,127,128,127,120,0
989,126,127,128,127,128,125,126,127,0
993,129,128,128,123,127,129,127,128,0
996,128,127,126,127,128,128,128,125,0
1008,127,129,128,139,126,129,132,124,0
1012,126,122,129,137,126,127,127,131,0
1015,128,128,126,120,128,128,126,132,0
1018,129,130,126,124,128,124,125,135,0
1022,128,128,126,123,128,126,125,128,0
1026,126,127,126,121,127,127,128,129,0
1029,129,129,126,128,127,125,127,129,0
1034,129,128,129,124,128,125,126,126,0
1043,127,127,128,137,127,130,130,118,0
1048,126,125,129,141,127,124,127,134,0
1052,129,128,126,123,128,127,127,129,0
1056,127,128,126,125,127,128,127,125,0
1059,128,124,129,136,127,124,130,121,0
1063,127,125,129,135,126,129,126,134,0
1067,127,129,125,119,127,130,127,134,0
1070,127,127,128,128,128,127,126,130,0
1073,128,128,127,122,127,131,127,128,0
1076,128,127,128,124,128,128,126,131,0
1079,127,129,128,126,128,124,128,131,0
1082,129,128,129,131,128,128,127,124,0
1085,128,126,128,130,128,126,127,125,0
1088,127,127,127,125,128,126,128,130,0
1091,128,129,128,130,128,128,129,126,0
1095,129,129,129,136,128,129,127,125,0
1098,128,128,129,142,126,130,132,125,0
1100,127,123,129,137,126,125,127,131,0
1104,127,128,128,124,128,127,125,129,0
1118,128,127,128,125,128,127,126,131,0
1122,128,128,125,121,128,131,126,129,0
1126,127,128,125,125,128,129,125,130,0
1132,127,129,127,121,128,127,127,131,0
1135,129,128,128,122,128,127,127,133,0
1139,128,129,128,131,128,131,127,119,0
1142,127,127,128,129,128,129,128,122,0
1145,127,127,127,128,127,129,128,128,0
1154,129,128,128,127,127,127,129,132,0
1158,128,126,130,139,127,128,131,120,0
1164,126,124,129,138,126,129,129,122,0
1168,127,129,125,122,128,130,127,131,0
1171,129,128,126,122,127,130,127,131,0
1174,128,128,127,122,128,128,128,132,0
1177,128,128,128,127,127,129,128,122,0
1180,127,127,126,124,127,128,127,130,0
1184,128,129,127,130,127,126,129,125,0
1187,128,127,128,129,127,124,128,120,0
1191,127,124,130,137,126,128,131,119,0
1193,127,126,126,121,128,132,126,130,0
1198,129,129,125,119,128,128,126,134,0
1201,129,130,128,121,128,132,127,131,0
1204,127,127,128,126,129,128,125,129,0
1207,127,128,126,120,127,130,127,125,0
1210,129,128,128,123,127,130,128,131,0
1214,129,129,128,125,128,124,127,131,0
1224,127,128,128,125,128,128,129,123,0
1228,127,128,128,133,127,128,129,131,0
1235,127,128,128,128,127,126,128,125,0
1241,127,128,128,129,127,124,127,132,0
1244,126,125,129,140,126,127,130,119,0
1247,127,125,128,137,126,130,130,127,0
1250,129,129,125,121,127,129,127,136,0
1253,128,127,128,121,128,128,126,130,0
1261,127,127,125,122,128,128,127,128,0
1264,127,127,129,132,128,127,126,125,0
1267,126,128,127,126,128,129,127,127,0
1270,128,128,128,126,127,129,126,132,0
1272,127,129,129,135,127,127,131,126,0
1275,127,124,130,136,126,126,128,133,0
1280,127,129,127,123,128,130,126,131,0
1285,128,127,127,125,128,130,126,128,0
1292,127,128,127,122,127,130,128,127,0
1288,127,129,128,123,128,127,126,130,0
1296,129,129,126,128,128,127,127,129,0
1303,127,127,127,130,128,124,128,131,0
1307,126,129,128,128,128,125,128,130,0
1312,126,128,129,140,129,125,128,130,0
1315,128,128,128,128,127,129,129,129,0
1318,128,128,128,128,127,128,127,127,0
1322,128,129,128,130,127,128,128,128,0
1325,127,127,127,125,127,124,128,126,0
1328,128,128,128,127,128,126,127,128,0
1337,128,125,129,139,126,125,131,122,0
1342,128,126,129,137,127,127,130,123,0
1345,127,125,128,134,126,128,130,127,0
1348,128,129,125,125,130,130,127,134,0
1351,129,129,127,119,128,128,126,134,0
1354,128,129,127,119,128,128,126,128,0
1357,127,128,125,122,128,127,126,129,0
1360,128,127,126,123,128,126,126,125,0
1363,128,128,126,124,129,126,125,130,0
1368,128,127,128,126,127,128,127,129,0
1377,126,128,127,129,128,127,127,127,0
1382,126,128,127,120,127,126,126,128,0
1386,128,128,126,121,127,129,128,120,0
1389,127,127,126,124,127,126,127,122,0
1393,125,123,129,135,125,128,132,124,0
1396,127,124,129,137,126,126,126,130,0
1413,129,128,128,123,129,130,126,129,0
1416,128,127,127,125,128,131,126,123,0
1420,126,126,128,126,128,125,126,131,0
1423,128,127,126,123,127,130,128,130,0
1431,129,127,128,127,128,126,127,125,0
1426,129,127,126,123,128,128,128,133,0
1434,126,128,128,127,128,125,129,129,0
1438,127,127,128,128,128,128,127,125,0
1441,129,128,128,127,128,128,128,131,0
1445,128,130,130,140,127,125,127,121,0
1448,127,126,126,127,128,127,127,126,0
1490,126,125,128,122,127,131,128,129,0
1496,128,128,126,125,128,129,128,133,0
1501,128,126,129,137,126,127,130,121,0
1509,127,125,128,136,126,126,130,126,0
1515,127,125,125,122,128,132,127,136,0
1560,129,128,125,121,128,128,126,130,0
1571,128,128,128,126,127,128,126,131,0
1595,128,127,128,123,128,127,128,123,0
1627,126,127,125,123,127,131,129,130,0
1634,128,129,126,125,127,128,127,132,0
1641,128,129,128,127,127,126,126,125,0
1648,127,127,127,126,128,124,131,118,0
1657,126,125,130,139,127,124,127,130,0
1695,129,127,128,127,128,128,127,130,0
1705,128,126,128,128,128,129,128,128,0
1714,128,128,126,125,128,129,127,133,0
1724,124,126,128,137,127,126,129,129,0
1730,128,128,127,122,128,130,128,132,0
1734,130,129,127,122,128,128,127,130,0
1738,126,128,125,124,128,129,126,132,0
1741,127,126,129,140,126,126,130,122,0
1745,128,128,126,124,127,129,127,130,0
1748,129,129,128,121,127,127,127,129,0
1751,127,129,129,133,127,124,126,124,0
1754,127,128,127,120,128,126,126,125,0
1758,129,128,126,123,128,128,125,126,0
1761,128,129,128,126,127,126,128,133,0
1765,128,128,127,129,128,129,127,127,0
1768,125,124,129,136,125,128,132,125,0
1771,127,123,129,138,126,127,127,132,0
1774,127,128,128,120,128,130,126,133,0
1778,128,128,127,121,128,131,127,128,0
1781,127,127,128,136,127,126,126,133,0
1784,126,130,128,122,129,128,126,130,0
1788,128,129,128,124,128,129,126,128,0
1791,128,126,128,124,128,131,127,127,0
1794,127,128,126,124,128,129,127,129,0
1827,127,129,129,128,129,124,127,131,0
1835,129,128,127,129,128,125,126,126,0
1842,127,127,129,128,128,123,127,120,0
1849,127,128,128,125,127,128,127,129,0
1856,127,129,128,125,128,127,127,132,0
1897,129,129,127,129,128,128,128,122,0
1908,128,126,128,132,128,124,128,122,0
1926,127,127,128,125,128,126,128,132,0
1933,127,128,128,126,128,127,127,129,0
1939,129,129,126,124,127,124,128,130,0
1963,128,128,128,135,125,130,132,127,0
1970,128,121,129,135,126,125,130,121,0
1975,127,130,127,122,128,125,127,133,0
1981,127,129,126,122,128,128,126,128,0
1986,128,129,128,121,127,128,127,124,0
1992,127,128,128,125,128,126,126,127,0
1996,127,128,127,129,128,125,128,130,0
2000,127,130,126,129,127,126,126,127,0
2003,129,130,128,126,128,126,129,123,0
2006,125,128,129,126,129,124,126,129,0
2009,128,128,128,124,127,129,128,125,0
2013,128,129,127,131,127,129,127,123,0
2016,128,127,126,128,127,128,128,133,0
2019,128,127,128,135,128,130,130,119,0
2023,126,125,129,138,127,125,126,131,0
2026,129,128,126,122,128,127,129,130,0
2029,128,128,128,126,128,125,126,127,0
2033,128,129,126,128,127,130,127,120,0
2036,125,128,127,125,128,127,129,123,0
2039,128,127,128,122,128,126,126,128,0
2042,128,128,128,123,128,127,128,130,0
2046,127,128,129,136,126,126,131,123,0
2049,126,123,130,137,126,125,127,134,0
2052,129,129,128,123,128,132,126,131,0
2056,129,129,128,121,128,131,126,132,0
2063,128,128,128,127,128,130,126,125,0
2069,127,128,127,132,128,130,129,127,0
2072,129,128,128,123,128,126,126,127,0
2076,127,130,126,127,128,124,127,126,0
2079,128,126,127,122,128,123,126,120,0
2082,126,125,129,138,126,126,127,131,0
2085,126,127,128,124,128,128,126,133,0
2097,129,129,128,126,126,129,129,124,0
2101,127,129,128,129,128,127,125,122,0
2104,125,128,126,123,128,128,128,131,0
2107,129,129,128,123,128,127,126,130,0
2111,129,129,128,128,129,126,127,130,0
2114,127,129,128,134,127,125,127,132,0
2117,125,128,128,125,128,125,126,128,0
2120,128,127,128,129,127,128,127,132,0
2124,129,129,128,134,127,124,129,127,0
2127,128,128,127,130,128,128,131,121,0
2130,126,125,130,139,125,129,131,124,0
2133,127,125,129,136,127,129,127,134,0
2136,129,128,127,122,128,131,127,130,0
2140,128,128,125,122,127,130,126,130,0
2143,127,127,127,122,127,131,128,132,0
2147,128,130,126,125,128,127,126,128,0
2164,128,127,128,126,127,131,128,131,0
2170,127,128,128,123,127,130,127,129,0
2173,127,128,126,126,128,128,127,131,0
2177,128,129,128,134,128,128,129,128,0
2180,129,129,126,126,128,128,128,131,0
2183,127,127,127,124,128,124,130,121,0
2186,127,124,129,139,126,127,126,129,0
2192,128,128,126,123,128,129,127,131,0
2196,129,128,128,125,128,126,128,117,0
2232,128,128,126,122,128,128,127,129,0
2243,127,128,128,125,127,131,129,124,0
2261,127,129,128,128,127,126,126,126,0
2269,128,127,127,128,128,127,127,123,0
2275,128,127,128,136,128,127,126,124,0
2302,125,124,129,140,127,126,131,121,0
2308,126,125,129,138,127,130,131,125,0
2312,128,130,127,121,128,128,126,135,0
2317,128,128,125,122,128,128,127,135,0
2320,127,128,126,123,128,128,127,129,0
2323,127,128,126,124,128,126,126,128,0
2326,129,128,128,127,127,128,127,130,0
2329,128,129,128,136,127,128,128,130,0
2332,127,128,129,138,127,127,130,117,0
2336,126,125,129,139,127,132,128,121,0
2339,129,130,127,122,128,130,127,132,0
2342,128,128,125,120,128,126,126,129,0
2346,128,128,128,128,128,124,127,128,0
2349,127,127,126,125,128,129,128,134,0
2353,128,128,128,128,127,128,129,129,0
2367,129,128,128,125,127,127,128,126,0
2372,127,128,128,125,128,127,127,123,0
2377,127,128,129,140,126,127,131,121,0
2382,128,129,126,133,127,129,128,131,0
2386,128,127,128,122,128,127,127,130,0
2390,128,128,126,124,127,128,126,121,0
2396,125,124,129,139,127,127,131,122,0
2402,127,124,128,119,128,129,126,131,0
2407,128,128,126,120,128,126,127,128,0
2410,127,128,126,123,128,128,126,129,0
2414,128,127,127,125,128,131,127,125,0
2417,128,129,128,123,127,128,129,128,0
2420,128,127,129,135,128,132,128,121,0
2423,126,127,128,139,126,128,131,125,0
2428,126,122,129,137,126,129,127,134,0
2431,128,129,128,124,129,130,128,128,0
2435,127,128,128,125,127,128,126,136,0
2438,126,128,126,126,128,126,126,129,0
2441,127,128,128,122,128,131,127,129,0
2444,128,128,129,126,127,128,128,128,0
2447,128,127,128,125,127,128,128,129,0
2451,126,125,129,130,129,128,130,119,0
2454,126,128,128,126,128,131,127,131,0
2460,128,129,126,123,128,127,127,131,0
2463,129,129,127,126,128,125,127,128,0
2467,127,127,129,129,128,125,126,127,0
2470,127,128,128,133,128,127,127,129,0
2474,129,130,126,127,128,126,128,129,0
2477,128,129,128,127,128,125,128,129,0
2480,128,128,126,127,128,126,128,131,0
2483,125,123,128,140,126,128,132,124,0
2486,127,124,129,136,128,128,126,130,0
2490,129,128,128,125,127,129,127,129,0
2493,128,128,126,123,128,129,126,133,0
2496,126,127,128,123,128,129,128,131,0
2500,128,130,126,126,127,125,128,132,0
2511,127,128,128,127,127,126,128,120,0
2506,129,129,129,125,127,129,128,130,0
2515,125,126,129,140,127,126,131,121,0
2518,127,128,126,124,128,127,128,129,0
2521,128,128,128,129,128,128,127,131,0
2524,127,128,126,127,128,132,127,118,0
2528,126,124,129,139,126,128,130,121,0
2531,127,125,126,120,127,131,128,128,0
2534,129,128,125,122,128,130,127,131,0
2537,127,129,128,124,128,129,125,125,0
2541,127,127,128,124,128,129,127,122,0
2544,127,128,127,122,129,125,127,129,0
2553,128,128,128,124,127,124,127,134,0
2556,128,127,126,124,127,128,127,122,0
2560,127,128,128,133,128,127,126,126,0
2564,127,127,128,128,127,129,127,123,0
2567,129,129,126,127,128,128,127,125,0
2571,129,127,128,139,126,126,132,127,0
2574,127,122,128,137,125,127,132,123,0
2577,127,126,128,124,129,128,126,130,0
2581,127,128,127,128,127,128,128,134,0
2584,128,128,126,121,127,129,127,133,0
2587,127,127,125,124,128,129,127,131,0
2590,127,127,126,123,128,127,126,131,0
2594,129,130,128,124,128,126,127,131,0
2597,128,128,126,122,127,126,126,126,0
2600,127,129,128,135,129,126,126,125,0
2604,125,130,128,126,128,124,128,131,0
2607,129,129,126,139,129,126,126,133,0
2611,129,127,126,123,128,129,127,133,0
2617,128,127,127,137,127,126,131,121,0
2620,126,125,129,136,127,129,126,130,0
2623,129,128,128,123,127,127,126,134,0
2627,129,129,128,120,128,129,127,127,0
2629,127,128,128,128,128,131,126,128,0
2632,126,128,126,125,128,126,127,131,0
2635,128,129,128,123,128,127,128,134,0
2638,129,128,128,122,128,127,127,127,0
2641,127,127,126,125,128,128,131,122,0
2644,126,122,130,137,126,127,131,119,0
2647,128,129,125,124,128,129,128,129,0
2650,129,130,127,128,128,125,128,132,0
2652,128,129,125,117,128,130,125,132,0
2655,127,127,126,122,128,131,127,128,0
2659,128,129,128,124,128,128,128,132,0
2664,128,130,128,137,128,126,126,127,0
2669,127,128,128,128,128,127,127,116,0
2672,124,128,129,136,126,126,127,119,0
2674,127,127,126,124,128,128,127,130,0
2677,129,128,127,123,128,128,126,127,0
2681,128,127,127,129,127,128,126,121,0
2684,125,127,128,123,127,131,128,125,0
2688,128,130,129,129,127,129,128,132,0
2691,127,127,126,123,128,129,127,126,0
2694,127,128,129,129,127,126,132,123,0
2697,126,123,129,137,126,126,131,119,0
2702,126,127,128,124,128,132,128,133,0
2705,129,129,125,121,127,127,125,129,0
2709,128,128,126,122,128,127,126,128,0
2714,126,128,126,120,128,130,127,129,0
2720,127,129,128,128,127,127,127,133,0
2724,129,128,126,125,128,128,128,126,0
2731,128,129,128,125,128,128,128,130,0
2734,127,127,127,125,128,130,127,127,0
2738,127,129,128,125,128,125,127,126,0
2742,128,129,128,123,128,124,128,130,0
2747,128,128,129,127,128,127,126,122,0
2750,127,127,128,137,126,129,132,122,0
2753,127,122,129,137,127,130,127,131,0
2756,129,128,126,121,128,129,126,129,0
2760,128,128,125,121,128,128,126,129,0
2763,127,127,126,123,129,126,126,123,0
2766,127,128,126,124,128,128,127,130,0
2769,129,129,127,128,127,128,128,126,0
2773,128,128,127,125,128,126,126,125,0
2776,127,128,128,133,128,127,128,120,0
2780,127,121,129,138,126,125,132,121,0
2783,128,127,126,124,128,130,128,134,0
2787,129,129,128,124,128,127,126,129,0
2790,127,127,128,128,127,130,128,129,0
2792,127,129,126,122,128,126,127,128,0
2797,129,130,126,128,128,124,126,130,0
2800,128,128,126,128,128,127,127,121,0
2803,127,129,128,132,128,124,126,124,0
2806,126,126,130,140,126,124,126,129,0
2809,129,129,128,123,127,124,127,130,0
2813,128,129,129,127,128,126,127,134,0
2816,127,128,128,134,128,125,126,124,0
2821,127,128,129,133,127,129,128,129,0
2826,129,129,127,124,127,132,129,129,0
2832,128,128,128,126,128,126,126,127,0
2836,127,128,128,128,129,127,130,127,0
2839,127,121,129,135,126,128,129,126,0
2842,129,128,125,120,128,131,127,135,0
2845,129,128,126,124,128,127,126,133,0
2855,126,129,128,123,128,130,127,128,0
2859,127,128,128,123,128,124,126,129,0
2863,129,127,126,124,128,127,127,128,0
2867,129,127,128,129,128,125,127,132,0
2871,126,124,130,139,127,126,130,121,0
2874,126,125,129,138,127,125,126,132,0
2877,128,130,128,125,127,128,128,134,0
2880,129,129,126,124,128,126,126,132,0
2884,128,127,128,125,128,127,127,126,0
2887,127,128,128,132,129,126,127,127,0
2890,128,129,128,127,127,129,129,129,0
2893,129,129,128,127,128,127,129,130,0
2897,128,129,129,126,128,127,127,130,0
2901,125,128,126,128,127,124,131,123,0
2904,127,126,128,142,127,129,128,130,0
2909,128,129,127,121,128,128,126,127,0
2912,128,129,129,121,127,131,127,124,0
2916,127,129,128,127,127,127,130,117,0
2921,127,125,129,140,127,130,128,134,0
2924,129,130,128,123,128,129,126,131,0
2927,126,130,128,131,128,128,127,126,0
2931,126,124,129,138,125,127,132,124,0
2936,127,123,129,133,128,128,127,134,0
2939,127,129,127,124,130,129,127,132,0
2944,126,127,128,126,128,128,126,130,0
2949,127,128,128,122,128,126,128,121,0
2952,128,127,125,131,127,130,127,130,0
2955,129,128,126,125,127,130,127,128,0
2958,127,127,128,131,128,124,128,131,0
2962,125,127,128,133,128,127,127,127,0
2965,128,128,127,129,128,126,128,127,0
2968,129,130,129,139,127,124,128,130,0
2972,128,128,128,131,127,122,128,131,0
2975,127,126,128,132,128,123,128,129,0
2978,125,127,125,125,127,130,129,131,0
2983,129,128,127,125,127,126,128,132,0
2985,128,127,129,126,128,125,128,133,0
2988,127,125,129,135,127,132,128,120,0
2991,127,127,128,126,127,128,127,126,0
2994,128,127,126,124,128,129,127,131,0
2997,128,128,128,124,127,128,128,118,0
2999,127,124,129,136,126,129,132,125,0
3002,127,123,128,130,128,131,126,134,0
3006,128,130,127,121,128,128,124,128,0
3010,128,128,126,120,128,126,125,134,0
3014,126,130,127,121,129,129,127,131,0
3018,127,130,128,125,127,127,127,131,0
3021,128,129,126,123,128,129,126,130,0
3025,127,127,128,130,127,127,129,117,0
3028,127,126,129,125,128,130,127,124,0
3032,127,127,128,125,128,130,129,128,0
3036,129,129,128,124,127,124,126,128,0
3039,128,128,128,127,128,123,128,132,0
3042,127,127,128,127,128,128,126,121,0
3047,126,129,126,123,127,124,127,123,0
3051,128,128,128,139,126,129,129,124,0
3054,128,125,129,136,126,128,129,124,0
3057,127,125,129,132,130,131,126,134,0
3060,127,129,126,118,128,130,127,133,0
3063,129,128,126,122,127,127,128,133,0
3068,128,129,128,125,128,127,127,129,0
3072,128,128,128,127,127,128,128,130,0
3076,127,128,128,124,128,125,125,128,0
3080,128,129,127,123,128,123,129,117,0
3083,128,128,127,124,128,127,126,125,0
3087,127,127,126,126,128,130,131,116,0
3090,126,125,130,140,127,125,128,132,0
3093,128,129,126,124,128,130,129,129,0
3097,128,128,126,127,127,124,126,126,0
3102,127,127,128,126,127,128,130,118,0
3105,125,126,126,129,127,128,129,128,0
3108,128,128,128,129,128,125,129,122,0
3111,129,127,128,127,128,128,125,129,0
3114,127,128,126,123,128,123,128,121,0
3118,126,125,129,137,126,125,131,121,0
3122,127,128,125,123,128,128,127,133,0
3124,130,130,126,123,128,127,126,130,0
3130,128,128,128,127,128,124,128,128,0
3133,127,129,126,128,128,126,127,127,0
3138,127,128,126,123,128,129,127,125,0
3141,129,127,128,126,128,127,126,123,0
3145,127,129,126,127,126,129,132,124,0
3148,126,124,128,137,126,127,128,128,0
3156,128,128,126,122,128,127,128,132,0
3161,127,128,126,124,128,128,129,127,0
3166,128,128,126,131,127,126,127,129,0
3171,125,130,128,138,127,125,128,129,0
3175,128,129,126,127,128,126,128,130,0
3178,129,129,128,127,128,128,127,121,0
3182,126,130,126,123,128,127,126,130,0
3185,126,128,127,122,128,129,127,126,0
3189,127,129,129,136,127,130,128,131,0
3192,129,128,126,121,128,126,127,130,0
3195,129,127,128,126,128,128,129,123,0
3198,127,127,128,130,128,125,127,122,0
3201,127,128,128,128,127,129,129,127,0
3204,128,126,126,124,127,130,128,130,0
3208,129,129,128,122,127,127,133,127,0
3211,127,124,129,136,125,129,131,125,0
3213,127,125,128,131,128,130,127,133,0
3217,127,130,127,120,127,125,125,131,0
3220,128,130,128,124,130,129,126,129,0
3223,127,128,127,123,127,131,127,130,0
3228,127,127,128,125,129,127,128,133,0
3231,129,128,126,123,128,127,127,133,0
3234,128,127,127,125,128,127,126,128,0
3237,128,127,126,128,128,123,128,130,0
3241,127,128,126,126,128,127,127,124,0
3244,128,128,126,125,127,130,129,126,0
3247,128,129,128,124,129,124,128,124,0
3250,127,127,128,127,128,126,126,122,0
3252,127,128,129,131,128,126,127,128,0
3255,128,128,128,127,127,127,129,122,0
3258,128,128,127,128,128,130,129,120,0
3261,127,122,129,137,126,128,131,123,0
3264,127,123,128,129,128,129,125,130,0
3271,128,127,127,124,130,131,128,127,0
3275,128,128,125,119,127,128,125,132,0
3278,127,128,126,122,129,132,126,128,0
3281,127,127,128,120,127,132,127,133,0
3284,128,129,128,129,127,132,127,131,0
3289,128,128,126,124,127,128,128,125,0
3296,127,128,128,127,127,128,130,119,0
3303,126,122,129,138,126,126,127,129,0
3309,129,127,126,127,127,124,127,128,0
3312,129,128,128,126,128,129,128,127,0
3315,127,128,126,123,128,131,128,131,0
3320,126,129,126,125,128,128,127,126,0
3323,128,129,128,132,128,130,128,126,0
3326,128,126,126,132,127,130,129,130,0
3330,128,126,126,127,128,124,127,128,0
3333,125,127,126,124,128,126,127,123,0
3336,127,128,129,139,129,124,128,134,0
3340,129,129,128,129,128,124,127,130,0
3343,128,127,128,125,128,123,127,129,0
3346,127,126,129,135,126,130,131,123,0
3349,128,125,129,125,127,128,127,128,0
3352,129,128,126,121,128,129,126,134,0
3356,129,127,127,124,128,129,126,128,0
3360,127,127,125,127,128,131,128,129,0
3364,127,129,128,131,127,127,126,128,0
3367,129,127,128,129,127,126,129,120,0
3370,127,129,127,128,128,130,127,127,0
3374,127,128,126,132,126,126,131,117,0
3378,127,129,128,123,128,129,125,130,0
3383,129,127,126,122,129,128,125,129,0
3390,129,128,128,121,129,128,125,126,0
3395,126,128,129,136,126,125,130,120,0
3398,127,124,128,121,127,131,128,129,0
3401,129,128,126,124,128,130,127,133,0
3405,129,129,128,127,128,125,127,131,0
3408,127,127,128,126,128,126,130,120,0
3411,127,126,129,139,127,131,128,134,0
3415,129,129,127,122,128,127,127,135,0
3418,129,128,126,122,128,128,128,121,0
3421,127,126,128,136,129,131,127,127,0
3424,127,127,128,124,128,128,127,129,0
3427,129,127,126,125,128,131,129,131,0
3430,128,128,128,131,127,124,129,134,0
3433,127,127,128,129,128,129,127,127,0
3437,126,126,128,127,128,126,128,128,0
3440,129,128,128,138,127,127,126,124,0
3443,127,129,126,127,128,124,130,118,0
3449,128,125,128,131,128,129,127,130,0
3446,126,124,129,134,127,126,128,119,0
3457,127,130,128,122,128,129,127,135,0
3462,129,127,128,122,127,130,127,133,0
3466,128,128,126,121,128,130,127,130,0
3469,127,126,129,133,128,125,128,133,0
3473,129,127,129,130,128,126,129,129,0
3476,129,129,128,126,128,128,127,127,0
3479,125,129,128,130,127,127,126,126,0
3482,127,126,128,137,127,128,128,128,0
3486,128,125,128,128,128,126,128,133,0
3491,129,129,128,125,127,128,126,126,0
3495,126,127,128,135,129,126,131,120,0
3499,127,121,129,138,126,127,130,122,0
3504,128,131,128,125,128,126,126,134,0
3510,129,129,128,121,127,132,127,134,0
3515,127,127,125,120,128,128,125,132,0
3518,127,129,126,125,128,128,125,131,0
3522,129,129,126,121,128,128,125,123,0
3525,129,130,126,122,127,127,125,131,0
3528,128,127,128,128,127,125,129,122,0
3532,126,126,128,137,126,126,127,134,0
3535,128,130,128,124,128,130,126,130,0
3538,128,128,127,120,127,127,127,130,0
3541,128,126,129,129,127,124,126,130,0
3543,127,129,128,122,128,127,127,129,0
3546,128,129,128,130,127,127,127,128,0
3550,128,129,126,124,128,132,128,124,0
3555,127,129,128,141,126,125,129,120,0
3559,126,124,129,138,127,125,125,132,0
3563,126,129,126,124,128,128,127,129,0
3567,129,127,126,132,127,131,128,117,0
3570,127,129,128,126,128,127,129,122,0
3574,127,127,128,124,128,128,127,132,0
3578,128,128,126,123,128,126,128,130,0
3582,128,126,129,125,128,127,127,121,0
3585,128,128,128,133,127,126,127,126,0
3588,127,125,130,140,125,127,131,123,0
3592,127,124,129,128,128,128,126,133,0
3595,129,130,128,138,127,126,125,128,0
3598,126,127,127,122,128,126,127,127,0
3601,125,127,128,126,128,128,128,132,0
3605,128,128,126,127,127,128,128,131,0
3609,129,128,128,128,128,125,127,131,0
3612,128,129,128,128,128,127,127,126,0
3616,127,127,126,125,128,127,128,116,0
3622,125,128,128,128,128,128,128,132,0
3628,129,129,128,127,127,129,127,129,0
3630,129,129,128,138,127,125,131,119,0
3634,127,122,129,137,125,128,130,120,0
3637,127,126,128,123,128,127,126,130,0
3639,129,128,125,120,127,132,127,135,0
3642,128,128,126,122,127,126,127,128,0
3646,128,128,126,120,128,128,125,129,0
3649,128,128,128,122,128,129,127,131,0
3652,129,130,128,126,128,130,125,130,0
3656,128,128,128,124,127,127,126,131,0
3659,127,129,128,128,128,131,126,116,0
3663,127,127,128,129,128,128,126,128,0
3669,129,127,126,124,128,129,128,132,0
3672,128,128,128,139,126,125,130,118,0
3675,126,124,129,138,126,128,129,120,0
3678,126,125,128,136,126,128,126,135,0
3681,129,129,127,121,128,128,127,135,0
3685,129,129,127,122,128,127,126,126,0
3687,126,129,128,124,128,127,126,129,0
3691,126,128,128,126,128,128,126,131,0
3695,128,128,128,122,127,127,129,125,0
3698,128,128,127,131,127,131,128,122,0
3703,125,128,128,128,128,124,128,128,0
3705,127,127,127,129,127,124,127,124,0
3710,127,128,128,123,127,126,127,132,0
3713,129,128,127,124,127,129,130,119,0
3717,128,122,129,139,126,128,130,122,0
3720,126,125,129,127,129,129,126,134,0
3723,129,129,125,124,128,128,126,131,0
3728,129,129,126,123,127,125,126,131,0
3732,128,128,127,126,128,128,127,131,0
3737,127,128,126,124,128,125,128,129,0
3740,127,129,128,122,127,127,127,127,0
3746,128,129,128,129,128,126,126,125,0
3751,127,127,128,124,127,127,126,122,0
3754,127,127,128,126,127,127,126,122,0
3766,128,128,128,128,128,125,126,123,0
3769,129,128,127,129,128,123,127,133,0
3772,128,126,129,138,126,128,131,125,0
3776,126,123,129,139,126,127,131,123,0
3779,128,129,125,123,128,130,129,129,0
3783,129,128,126,122,128,127,127,131,0
3786,128,127,128,125,128,127,127,132,0
3789,126,129,127,124,128,132,128,132,0
3795,128,128,128,135,128,127,127,130,0
3798,129,130,129,129,128,127,127,130,0
3802,127,128,127,127,128,127,128,117,0
3805,127,124,129,137,127,128,130,122,0
3808,128,128,128,123,128,128,127,131,0
3811,129,128,126,129,128,127,127,126,0
3815,127,130,129,130,128,125,126,129,0
3818,127,128,126,129,128,123,127,126,0
3821,128,128,126,130,127,125,128,125,0
3825,128,128,126,127,127,125,128,128,0
3828,128,129,127,132,128,129,126,120,0
3831,125,123,129,136,125,128,133,123,0
3835,127,124,128,135,128,132,127,132,0
3839,129,128,126,122,128,128,129,130,0
3842,128,129,128,124,128,127,127,132,0
3845,127,127,128,132,128,126,127,127,0
3848,127,129,129,131,127,126,127,130,0
3851,128,127,128,130,127,129,127,129,0
3855,127,128,128,121,128,128,125,130,0
3861,128,129,128,122,128,128,125,124,0
3867,127,128,126,123,128,128,128,131,0
3871,128,129,127,127,128,126,127,130,0
3874,129,129,128,125,128,127,127,119,0
3879,126,124,130,140,126,129,132,124,0
3882,126,122,130,139,127,128,127,128,0
3885,128,128,125,123,128,127,128,129,0
3888,128,129,126,123,128,127,126,131,0
3891,126,129,128,125,128,124,129,123,0
3895,128,127,126,123,128,129,127,131,0
3898,129,128,126,123,126,132,126,129,0
3902,129,130,128,125,127,128,125,129,0
3905,127,127,126,127,127,128,128,127,0
3908,127,129,128,128,128,126,128,127,0
3911,128,129,128,128,128,125,127,132,0
3915,128,128,126,134,127,125,128,131,0
3919,127,127,126,125,128,129,128,119,0
3922,124,124,129,139,127,127,134,121,0
3925,128,129,127,122,128,128,128,131,0
3929,129,129,128,124,128,127,126,130,0
3932,128,128,128,133,128,128,128,119,0
3935,127,121,129,138,125,127,131,120,0
3938,128,128,125,120,128,129,127,130,0
3941,127,128,128,124,128,127,125,132,0
3945,126,128,128,124,128,129,125,129,0
3948,127,127,126,118,128,131,126,128,0
3951,128,128,128,122,128,130,127,131,0
3954,128,129,126,124,128,127,125,127,0
3958,127,128,128,125,128,124,129,117,0
3961,127,123,130,138,126,126,129,126,0
3965,128,129,125,124,127,130,128,127,0
3968,128,129,125,124,128,131,127,129,0
3971,127,129,128,123,128,128,125,121,0
3977,124,127,126,125,128,127,126,123,0
3980,128,128,128,127,127,129,128,132,0
3983,129,129,127,125,127,127,128,131,0
3986,128,128,128,131,129,124,130,119,0
3988,126,126,128,136,128,126,126,125,0
3991,126,130,126,126,127,126,126,129,0
3994,129,129,126,126,127,129,126,128,0
3997,128,127,128,129,127,125,128,119,0
4000,124,126,129,137,128,128,131,122,0
4003,128,128,128,123,128,129,128,135,0
4007,130,130,126,122,128,127,126,129,0
4010,127,127,128,123,128,130,128,125,0
4012,127,127,126,130,128,128,128,118,0
4015,125,127,128,127,127,128,129,128,0
4018,129,129,128,135,128,130,129,124,0
4021,127,128,128,137,126,128,132,124,0
4024,127,123,129,135,127,126,130,121,0
4027,127,127,127,120,128,130,127,136,0
4030,128,128,128,123,128,131,128,130,0
4033,128,129,126,121,129,127,126,133,0
4036,128,130,128,121,127,131,126,128,0
4039,127,128,126,123,128,127,127,129,0
4041,129,128,126,123,128,125,127,131,0
4044,129,128,126,127,128,122,125,125,0
4047,127,129,129,128,128,123,126,125,0
4050,128,127,127,131,128,124,127,128,0
4054,127,129,128,129,127,126,128,132,0
4058,129,128,128,129,128,124,126,121,0
4067,126,127,128,127,128,129,128,121,0
4071,127,127,128,140,127,125,127,129,0
4074,129,127,126,125,128,129,128,130,0
4078,128,128,129,130,128,130,127,130,0
4082,127,125,129,137,126,129,132,123,0
4088,126,124,129,135,128,130,127,132,0
4095,129,129,128,125,128,128,125,131,0
4098,128,127,125,120,128,131,126,127,0
4102,128,128,127,123,128,131,126,129,0
4105,126,127,126,124,127,131,127,125,0
4108,128,129,126,125,128,130,129,129,0
4111,129,128,126,129,127,128,127,128,0
4115,125,125,129,141,126,129,130,121,0
4118,127,128,126,124,127,128,128,131,0
4121,129,128,128,125,127,129,127,129,0
4124,128,127,129,128,128,126,127,127,0
4131,126,127,129,127,128,127,127,123,0
4127,127,126,129,128,128,126,126,120,0
4134,128,127,127,125,128,129,129,130,0
4138,129,129,128,124,128,126,128,132,0
4141,125,127,128,133,128,127,127,128,0
4145,127,128,128,123,127,125,127,129,0
4148,128,126,128,128,127,126,127,124,0
4151,129,127,128,129,127,130,128,122,0
4154,127,128,126,130,130,127,132,127,0
4157,127,121,129,136,125,126,131,122,0
4160,127,128,127,121,128,131,128,135,0
4164,129,129,125,121,128,131,127,133,0
4167,128,129,128,120,129,130,127,131,0
4170,127,128,127,130,129,128,126,128,0
4173,126,127,128,129,127,128,126,126,0
4176,129,129,126,127,128,125,127,132,0
4180,128,129,128,126,128,126,126,119,0
4183,126,127,128,122,128,128,127,132,0
4187,128,127,126,127,128,129,127,121,0
4190,129,129,128,128,127,128,127,126,0
4193,127,128,126,124,127,130,127,118,0
4198,126,125,130,137,127,129,130,119,0
4202,127,130,126,122,128,128,126,131,0
4206,128,127,128,121,128,130,127,130,0
4213,128,127,128,124,128,131,126,121,0
4216,126,126,129,138,126,129,130,123,0
4219,125,128,128,124,128,128,126,130,0
4222,128,129,128,120,128,127,126,133,0
4225,128,129,128,123,127,128,129,118,0
4229,126,128,126,126,127,129,128,131,0
4233,128,129,126,122,128,129,128,135,0
4236,129,128,128,125,127,123,128,122,0
4239,128,128,126,126,127,128,127,133,0
4243,127,128,128,125,128,125,127,127,0
4246,127,128,128,124,127,126,127,126,0
4249,128,127,129,129,126,125,129,122,0
4252,128,128,128,133,128,127,127,129,0
4255,128,129,128,138,126,129,132,123,0
4259,127,121,130,137,126,128,127,134,0
4262,127,129,128,119,128,129,124,133,0
4265,128,128,128,123,128,130,126,132,0
4268,126,129,125,127,128,130,126,124,0
4271,127,127,125,124,128,128,127,131,0
4274,130,128,127,127,128,127,127,133,0
4278,128,129,128,129,128,126,126,124,0
4284,127,126,128,129,128,126,128,126,0
4287,128,128,128,127,128,125,129,129,0
4292,128,129,128,132,127,125,128,131,0
4296,129,126,129,139,129,125,129,122,0
4300,127,128,129,127,128,124,128,125,0
4303,127,127,129,138,127,130,128,130,0
4307,128,127,128,128,127,125,126,126,0
4310,126,126,128,124,128,126,128,128,0
4318,127,128,126,125,128,127,130,121,0
4321,126,124,129,137,127,128,129,127,0
4324,128,127,127,123,128,129,126,131,0
4327,128,127,128,136,127,127,126,134,0
4330,126,129,128,127,128,129,127,126,0
4333,127,127,126,122,128,128,129,118,0
4336,129,130,128,127,128,128,126,126,0
4339,128,127,127,126,127,128,127,133,0
4342,127,128,129,135,127,130,128,118,0
4347,126,126,129,139,126,130,131,121,0
4350,128,128,126,123,127,130,127,131,0
4353,128,129,128,124,128,127,127,129,0
4357,128,127,129,125,127,126,127,128,0
4360,127,128,127,127,128,125,128,128,0
4366,129,129,125,124,128,128,127,134,0
4370,129,128,127,129,128,129,127,118,0
4375,127,126,128,136,125,130,131,126,0
4378,127,124,129,134,126,127,128,129,0
4381,128,129,125,121,128,126,124,129,0
4384,128,128,128,124,130,131,127,134,0
4387,128,129,127,124,128,129,126,132,0
4391,126,129,125,125,127,126,128,129,0
4395,127,128,128,129,128,128,128,130,0
4398,128,128,125,126,127,129,129,124,0
4401,128,127,128,126,129,126,127,129,0
4404,127,128,127,135,129,126,127,126,0
4407,128,128,128,128,129,123,127,125,0
4411,130,129,128,129,127,124,126,123,0
4415,129,129,128,126,128,124,127,126,0
4418,127,125,129,138,126,127,131,124,0
4422,127,128,127,123,128,127,129,133,0
4425,128,127,126,123,128,127,127,133,0
4431,127,128,126,126,127,130,128,120,0
4435,127,127,128,126,128,124,125,122,0
4438,125,129,128,123,127,129,127,131,0
4442,129,128,128,123,127,126,128,132,0
4445,128,127,129,128,127,128,126,129,0
4448,126,126,126,124,127,128,128,127,0
4452,127,128,128,132,128,130,128,130,0
4455,129,129,129,139,126,125,130,121,0
4459,128,125,128,138,125,127,131,126,0
4461,127,122,129,133,126,129,126,126,0
4464,127,128,127,121,130,130,127,129,0
4469,128,129,127,122,127,130,128,127,0
4475,128,128,127,122,129,131,127,130,0
4477,128,127,128,124,128,131,127,129,0
4480,127,128,127,123,128,127,129,127,0
4484,129,129,128,123,128,126,126,133,0
4489,128,127,128,128,128,127,126,128,0
4493,128,128,128,126,128,128,128,126,0
4496,127,129,127,129,127,131,129,127,0
4499,129,128,128,128,128,128,127,128,0
4503,128,128,127,127,127,127,131,118,0
4506,127,124,128,138,126,127,130,124,0
4509,126,125,128,127,127,130,126,129,0
4512,129,128,128,123,128,128,125,129,0
4516,128,129,128,124,128,127,127,134,0
4520,126,129,128,125,128,127,127,118,0
4523,127,127,126,124,128,128,127,127,0
4529,128,129,127,125,128,127,127,128,0
4532,128,127,126,129,128,124,127,130,0
4535,126,129,127,128,129,125,128,128,0
4538,127,128,128,130,127,130,128,130,0
4542,129,128,128,126,128,131,129,127,0
4548,128,128,127,125,128,129,129,129,0
4552,127,126,129,140,126,128,132,123,0
4555,127,123,129,136,127,129,127,130,0
4558,129,128,125,123,128,130,128,132,0
4561,128,129,126,127,128,126,127,133,0
4565,128,127,128,123,128,131,127,132,0
4568,126,128,128,124,129,129,128,129,0
4571,128,128,128,128,128,128,127,130,0
4575,128,127,128,126,127,125,128,123,0
4578,127,127,126,124,128,129,128,123,0
4583,125,126,129,131,128,127,128,129,0
4586,129,129,128,128,128,129,127,131,0
4588,129,127,127,127,127,127,127,121,0
4592,128,128,129,134,128,129,128,129,0
4595,127,124,130,138,127,129,131,119,0
4597,127,127,126,123,128,130,127,130,0
4600,128,128,128,128,128,129,128,132,0
4603,127,130,127,122,128,128,125,121,0
4607,126,122,129,135,126,128,130,121,0
4610,128,127,128,119,128,132,126,132,0
4613,130,130,128,124,128,129,126,131,0
4618,128,126,128,128,128,127,127,131,0
4622,125,126,126,126,128,126,127,128,0
4625,128,128,128,127,128,128,128,124,0
4628,129,127,126,129,127,129,129,129,0
4631,128,128,128,129,128,124,126,124,0
4634,127,127,128,139,128,130,128,126,0
4637,128,128,127,129,128,128,127,129,0
4640,128,128,129,139,127,128,128,128,0
4643,128,128,128,132,128,124,127,131,0
4647,127,128,128,124,128,126,131,122,0
4652,127,124,128,138,126,126,132,122,0
4656,128,124,128,121,128,129,126,132,0
4662,128,128,126,122,128,131,127,133,0
4666,126,128,127,125,127,126,126,128,0
4674,127,127,127,126,128,129,126,130,0
4678,129,129,128,127,128,125,124,124,0
4682,128,130,127,134,127,126,126,132,0
4686,128,128,126,122,128,125,127,131,0
4690,128,129,126,124,127,126,126,128,0
4693,129,129,128,130,128,126,128,128,0
4697,128,127,129,129,128,127,128,116,0
4700,127,125,128,140,127,126,132,121,0
4703,126,127,127,124,128,129,128,133,0
4706,129,128,129,127,128,128,127,123,0
4710,128,127,127,126,128,127,126,128,0
4713,127,127,129,138,127,127,130,124,0
4716,126,128,127,120,128,128,127,131,0
4719,129,130,128,126,128,128,127,130,0
4723,128,128,128,127,128,131,128,125,0
4726,127,128,128,129,128,126,128,121,0
4729,126,128,128,122,127,129,128,129,0
4732,129,128,128,127,127,124,126,127,0
4736,128,129,126,129,128,123,126,129,0
4739,127,127,127,124,128,127,129,120,0
4742,127,122,128,135,125,130,129,123,0
4745,129,129,126,121,127,129,126,130,0
4749,129,129,128,125,128,130,126,127,0
4752,127,129,128,126,128,126,126,119,0
4755,126,127,128,131,127,126,126,122,0
4758,128,128,126,125,127,125,127,129,0
4761,128,128,126,124,128,127,127,129,0
4766,126,124,129,135,127,125,129,121,0
4771,127,126,128,136,126,127,127,129,0
4776,128,128,126,120,128,133,127,131,0
4780,128,129,127,121,128,131,127,130,0
4785,127,128,126,126,129,125,126,126,0
4789,127,128,126,125,128,128,126,124,0
4792,128,128,128,125,128,127,126,128,0
4795,129,127,126,123,127,124,128,130,0
4798,125,126,128,131,128,124,128,129,0
4802,127,127,128,129,128,128,127,130,0
4805,128,128,128,128,127,124,126,132,0
4809,129,128,128,126,127,126,127,132,0
4812,127,128,128,136,128,128,131,125,0
4815,127,121,129,138,125,126,130,121,0
4819,129,130,125,122,128,128,127,134,0
4822,129,127,126,123,128,126,125,126,0
4825,128,126,128,128,128,131,129,131,0
4828,127,127,126,125,128,126,128,130,0
4831,126,126,126,128,127,129,128,134,0
4834,129,128,126,125,127,124,126,130,0
4837,128,130,126,124,128,126,125,118,0
4840,127,124,128,137,125,127,129,119,0
4845,127,127,128,121,128,132,127,133,0
4848,129,129,128,123,128,126,130,131,0
4851,128,130,126,127,127,127,128,132,0
4857,128,127,126,124,127,129,128,129,0
4854,127,127,126,128,130,128,127,130,0
4860,129,128,128,128,128,125,127,132,0
4863,129,128,129,131,128,126,125,125,0
4866,127,127,129,125,128,127,127,120,0
4870,127,128,127,123,128,126,128,126,0
4872,128,129,128,126,127,127,126,123,0
4875,128,128,126,127,128,125,127,128,0
4880,127,127,126,124,129,127,132,122,0
4885,127,121,129,137,126,126,132,121,0
4890,127,130,126,123,128,132,127,127,0
4894,128,128,128,127,128,125,125,125,0
4897,127,127,128,125,128,128,125,129,0
4900,127,128,126,123,128,127,126,131,0
4904,129,128,128,124,128,130,128,133,0
4906,128,130,127,124,128,123,126,128,0
4910,127,126,129,137,127,125,131,116,0
4912,127,125,129,127,128,128,128,130,0
4918,129,129,127,130,127,127,127,130,0
4921,127,128,127,126,127,124,127,125,0
4925,127,129,126,127,127,125,126,126,0
4928,125,127,128,129,128,127,127,129,0
4931,128,128,126,126,128,128,128,128,0
4934,127,127,127,127,128,129,127,129,0
4937,127,129,129,141,127,130,131,123,0
4940,126,122,129,136,127,126,127,134,0
4943,128,129,125,122,128,128,128,135,0
4945,128,128,126,122,128,128,125,132,0
4948,127,127,128,124,127,131,127,130,0
4951,127,129,126,128,128,126,126,124,0
4954,128,128,128,126,127,130,128,129,0
4958,128,129,128,124,128,124,125,125,0
4962,127,129,127,125,128,125,130,119,0
4965,127,123,129,141,126,126,132,124,0
4968,128,128,126,124,128,131,128,128,0
4976,128,129,127,121,128,125,126,133,0
4980,128,129,128,122,128,125,125,125,0
4985,126,127,128,128,128,124,128,131,0
4988,129,128,126,135,127,130,128,135,0
4992,128,130,128,129,128,127,128,129,0
4998,127,129,128,135,128,125,128,121,0
5002,127,127,127,127,128,128,128,128,0
5005,129,127,128,128,127,124,127,126,0
5008,128,127,128,132,127,128,126,128,0
5012,127,121,130,137,125,129,131,122,0
5015,127,122,129,136,127,126,127,133,0
5018,129,131,128,123,128,127,125,130,0
5022,128,128,128,123,128,130,127,131,0
5025,128,128,126,123,128,124,125,127,0
5029,125,129,127,121,128,129,125,128,0
5032,128,128,126,121,128,128,128,133,0
5036,128,128,128,121,128,128,125,123,0
5038,127,127,128,126,128,129,126,124,0
5041,126,128,129,137,126,129,129,121,0
5044,128,127,128,129,128,128,126,124,0
5047,129,128,126,123,127,130,127,126,0
5053,126,126,129,139,126,126,129,120,0
5056,127,125,128,123,128,129,129,135,0
5059,128,129,128,126,128,125,130,124,0
5062,129,130,128,128,128,125,129,131,0
5065,128,128,126,126,127,128,129,120,0
5068,127,127,126,124,127,127,127,127,0
5072,127,127,128,127,128,130,129,131,0
5076,128,127,128,125,128,129,129,129,0
5080,127,128,128,129,127,125,127,129,0
5085,127,128,129,131,127,124,130,120,0
5089,127,125,129,138,126,127,126,135,0
5093,129,128,128,121,128,129,126,135,0
5096,128,128,127,126,128,125,127,130,0
5099,127,128,128,120,128,129,128,120,0
5103,127,128,126,122,128,130,127,133,0
5106,129,129,128,122,128,126,126,126,0
5111,128,128,128,128,127,129,127,129,0
5118,127,127,126,124,128,123,127,129,0
5123,127,128,128,127,127,128,128,132,0
5126,129,128,128,134,128,127,130,129,0
5129,127,128,127,130,128,124,130,123,0
5132,126,121,128,139,126,129,132,125,0
5135,126,123,128,133,128,132,127,132,0
5140,129,128,125,120,128,130,127,133,0
5143,129,128,126,121,128,128,127,135,0
5146,125,128,126,125,128,126,126,130,0
5150,126,128,129,134,129,131,129,127,0
5153,128,127,127,130,127,130,129,132,0
5156,128,127,126,129,127,130,129,130,0
5160,127,127,128,137,127,125,129,120,0
5163,125,125,126,125,128,125,126,127,0
5166,129,126,128,129,128,127,128,133,0
5169,128,128,128,123,128,124,129,120,0
5173,125,128,128,125,128,130,127,117,0
5176,125,128,126,123,127,126,126,133,0
5179,128,128,128,122,127,128,126,129,0
5183,128,127,127,123,128,127,126,125,0
5186,127,127,128,131,127,127,127,128,0
5189,127,127,129,139,129,124,129,122,0
5193,129,127,128,129,128,128,129,132,0
5197,128,129,127,128,127,128,129,118,0
5200,125,126,128,138,125,129,131,124,0
5203,126,122,130,135,126,125,127,135,0
5207,129,127,128,120,128,129,127,131,0
5210,127,128,127,126,128,128,124,127,0
5213,126,130,127,120,127,131,126,123,0
5217,127,128,125,123,128,125,128,133,0
5221,129,128,128,125,128,124,126,125,0
5225,128,128,126,125,127,130,128,130,0
5231,128,127,126,125,128,126,129,120,0
5237,127,128,126,125,127,130,129,125,0
5240,128,128,127,127,127,132,129,117,0
5244,126,126,128,126,128,130,127,123,0
5247,128,127,128,127,128,129,127,118,0
5250,125,125,129,140,126,127,130,119,0
5253,127,128,125,120,128,128,128,131,0
5257,129,128,127,123,128,128,126,130,0
5260,128,127,126,121,127,130,128,122,0
5263,127,128,128,125,128,127,126,131,0
5267,128,129,127,128,128,127,127,125,0
5270,128,128,128,126,127,127,125,123,0
5279,127,129,126,136,126,128,132,125,0
5284,127,122,129,136,126,126,129,123,0
5287,128,128,126,117,127,128,126,129,0
5291,128,129,127,123,128,129,127,126,0
5294,128,128,128,125,128,130,129,133,0
5298,126,127,126,124,128,127,129,128,0
5301,126,127,126,127,127,125,129,129,0
5304,129,129,128,129,127,128,128,134,0
5308,128,128,128,130,128,124,128,128,0
5311,126,126,129,132,128,128,128,131,0
5314,127,129,128,128,128,128,128,129,0
5318,127,127,128,133,127,128,126,130,0
5321,128,129,128,138,129,128,132,122,0
5324,127,124,128,137,126,124,130,123,0
5326,128,128,126,123,128,132,126,134,0
5329,130,128,127,121,127,127,126,134,0
5333,128,128,128,123,128,125,125,129,0
5336,127,127,127,123,128,125,126,130,0
5341,127,126,128,132,128,128,128,131,0
5345,129,126,128,124,128,126,126,131,0
5349,129,128,128,134,128,128,126,128,0
5351,127,127,128,131,128,126,128,120,0
5354,125,127,128,122,128,127,127,126,0
5357,129,129,128,124,127,124,126,130,0
5359,128,127,127,126,128,124,126,132,0
5362,128,129,129,141,126,126,132,122,0
5365,127,123,129,136,126,125,127,134,0
5368,129,129,127,130,128,131,128,134,0
5370,128,129,127,123,128,128,125,134,0
5373,128,126,128,124,127,130,127,128,0
5376,126,128,128,123,128,127,129,130,0
5380,128,128,127,129,127,129,129,128,0
5383,129,126,129,125,127,129,126,121,0
5386,127,125,129,132,127,127,126,129,0
5389,126,128,128,126,127,128,127,128,0
5392,128,127,128,123,128,131,127,125,0
5394,128,128,126,125,128,124,126,130,0
5398,128,128,128,126,127,126,127,132,0
5400,127,123,129,137,126,129,131,122,0
5404,128,128,127,122,128,127,127,133,0
5408,129,129,127,123,128,127,127,132,0
5411,128,129,128,127,129,127,126,126,0
5415,127,128,126,123,128,128,127,129,0
5419,128,127,126,125,127,129,129,124,0
5427,128,128,127,134,128,130,127,122,0
5430,127,128,129,130,128,126,126,130,0
5433,125,126,129,140,127,125,130,122,0
5436,128,127,125,123,127,127,127,130,0
5442,129,127,128,127,128,126,127,119,0
5447,127,128,128,137,126,129,130,119,0
5450,126,125,128,137,126,128,130,122,0
5454,128,129,127,122,128,130,127,135,0
5458,128,129,127,122,128,130,128,130,0
5461,128,128,128,123,128,127,125,129,0
5464,127,127,129,133,127,130,128,129,0
5469,127,129,127,123,128,125,126,124,0
5471,129,129,126,124,128,124,126,130,0
5474,128,129,126,124,128,127,125,130,0
5478,124,129,128,134,126,126,132,126,0
5483,127,125,128,120,128,132,128,131,0
5486,129,128,127,122,127,126,127,133,0
5489,126,130,126,124,128,128,126,129,0
5492,127,128,128,125,128,129,127,128,0
5495,127,128,128,123,127,127,128,133,0
5498,127,127,128,129,127,127,128,132,0
5503,127,127,129,138,126,123,130,118,0
5510,128,127,128,120,129,129,127,129,0
5507,127,125,129,137,126,128,131,125,0
5514,129,128,128,122,128,130,127,130,0
5518,128,129,125,120,128,131,128,121,0
5522,127,128,127,130,128,123,127,132,0
5528,127,127,126,123,128,128,127,130,0
5532,129,129,128,128,127,128,128,133,0
5580,128,129,128,133,128,124,127,126,0
5588,127,127,129,137,128,127,128,123,0
5604,127,128,126,128,127,129,126,127,0
5649,128,127,126,125,127,127,127,131,0
5658,128,128,128,130,128,131,130,120,0
5665,126,122,129,139,126,126,131,120,0
5674,126,126,125,119,128,127,128,129,0
5678,129,129,126,121,127,130,127,133,0
5716,129,128,128,131,128,129,128,130,0
5724,127,126,127,124,128,130,127,128,0
5730,127,127,128,125,127,127,130,119,0
5784,129,130,129,129,128,126,126,129,0
5795,128,127,126,126,128,123,127,127,0
5804,127,128,126,127,127,128,127,122,0
5812,125,128,127,125,128,126,126,129,0
5818,128,129,127,127,128,126,127,127,0
5823,128,127,126,128,128,126,126,122,0
5851,126,124,129,140,127,126,132,125,0
5855,127,122,128,134,128,128,127,131,0
5859,128,128,128,122,128,129,127,131,0
5862,128,128,126,121,127,127,127,132,0
5867,128,129,128,128,128,125,125,125,0
5871,127,127,129,128,128,126,126,129,0
5874,128,130,126,124,128,128,127,128,0
5877,128,129,128,124,128,128,128,127,0
5881,127,126,129,138,127,128,130,120,0
5884,126,126,128,134,128,129,128,133,0
5888,129,129,128,126,128,126,126,135,0
5891,129,129,128,123,128,128,126,131,0
5898,127,127,128,135,128,127,128,117,0
5903,126,124,129,138,126,128,129,126,0
5906,128,128,126,127,127,129,126,131,0
5911,129,129,128,122,127,129,128,133,0
5919,128,130,128,127,127,132,127,127,0
5924,126,128,128,128,128,128,128,124,0
5928,127,128,127,123,128,128,127,130,0
5931,128,128,126,128,127,125,127,131,0
5934,127,127,127,127,127,124,128,127,0
5937,127,126,129,138,125,127,132,122,0
5941,128,122,129,139,126,129,126,134,0
5944,128,128,127,123,128,131,128,133,0
5947,128,128,126,123,128,128,127,132,0
5950,125,127,128,124,128,128,127,130,0
5953,128,129,128,134,128,125,127,130,0
5957,129,130,128,126,127,129,128,124,0
5960,127,128,127,128,128,125,127,130,0
5963,127,127,127,129,128,131,126,121,0
5967,127,127,129,130,128,126,126,125,0
5984,128,127,129,136,127,125,126,126,0
5988,128,128,126,129,128,126,125,133,0
5992,127,128,128,122,127,129,128,130,0
5996,128,129,128,130,127,129,128,133,0
5999,129,129,128,125,127,127,128,128,0
6003,125,127,129,138,124,128,131,125,0
6006,127,122,129,136,126,127,130,122,0
6009,127,128,128,123,128,128,127,134,0
6055,129,129,127,122,128,131,128,133,0
6062,128,128,125,121,128,127,125,132,0
6068,125,127,127,130,128,125,127,131,0
6123,126,128,125,127,127,125,128,127,0
6133,129,130,126,123,127,129,127,130,0
6138,128,128,127,128,128,129,127,126,0
6141,127,128,129,130,128,124,127,129,0
6145,127,127,128,122,128,129,127,129,0
6148,128,128,128,126,128,124,126,124,0
6151,128,128,126,127,127,128,127,121,0
6154,127,127,126,127,126,126,132,121,0
6157,127,124,129,137,126,126,127,131,0
6161,129,129,126,124,127,130,129,129,0
6164,129,128,125,126,128,125,125,127,0
6168,126,129,128,130,129,126,126,122,0
6171,127,128,128,124,127,129,127,130,0
6174,128,129,128,125,127,126,127,131,0
6177,128,127,127,125,128,128,128,122,0
6180,127,126,130,140,127,128,131,119,0
6188,126,126,129,138,128,128,128,130,0
6191,129,130,128,124,128,127,126,129,0
6194,128,129,128,125,128,124,127,133,0
6202,127,128,127,126,128,131,128,128,0
6205,126,128,127,124,128,126,126,128,0
6209,126,128,127,124,127,125,128,130,0
6212,129,129,128,125,127,128,128,121,0
6217,127,126,130,140,126,128,131,124,0
6220,126,122,130,137,126,127,128,133,0
6223,128,127,128,123,128,129,127,135,0
6227,127,129,128,121,129,128,126,132,0
6230,128,127,128,122,128,130,126,129,0
6233,127,129,126,121,127,130,127,132,0
6237,129,130,126,122,128,127,129,129,0
6239,128,128,128,124,128,123,127,130,0
6242,128,127,129,130,128,123,126,125,0
6254,126,129,129,128,128,130,128,123,0
6259,128,127,128,125,127,126,128,131,0
6262,128,128,129,127,127,127,128,131,0
6266,128,125,128,140,126,126,131,117,0
6269,126,125,129,138,127,125,128,131,0
6272,128,129,126,122,128,130,128,131,0
6276,128,129,126,123,128,127,126,133,0
6279,128,128,129,126,128,127,127,125,0
6281,126,128,129,134,127,128,128,128,0
6284,128,129,128,126,127,124,127,132,0
6287,129,129,128,125,128,125,128,129,0
6290,128,129,128,133,127,128,129,119,0
6293,127,124,129,138,127,129,130,123,0
6297,127,129,125,122,128,128,127,135,0
6300,129,127,126,123,128,128,127,128,0
6303,127,128,128,122,128,127,126,128,0
6323,127,127,128,122,128,131,126,122,0
6327,128,129,126,126,128,126,126,130,0
6330,128,127,129,128,127,126,126,124,0
6335,128,129,127,134,127,129,126,121,0
6339,126,127,129,134,128,129,127,128,0
6343,127,129,129,136,128,129,127,125,0
6346,129,128,128,123,128,125,128,129,0
6351,128,126,128,128,128,126,128,126,0
6354,127,127,126,127,127,127,132,123,0
6358,127,122,129,136,126,126,131,123,0
6361,128,123,129,133,128,130,127,131,0
6389,127,128,125,120,127,128,126,131,0
6395,127,129,127,121,127,128,125,130,0
6400,128,128,125,121,127,131,127,132,0
6407,129,129,127,126,127,131,128,131,0
6411,128,129,126,124,128,128,125,129,0
6462,127,129,129,126,128,130,128,126,0
6472,127,129,126,126,125,126,129,131,0
6479,129,130,126,123,128,130,128,130,0
6487,126,129,129,131,127,126,127,123,0
6495,125,127,127,138,127,127,131,123,0
6505,127,124,130,132,128,128,129,130,0
6517,128,129,127,133,127,130,129,120,0
6524,128,129,128,125,128,130,128,126,0
6530,127,127,128,125,128,128,126,121,0
6535,128,128,128,134,128,129,128,131,0
6539,129,128,127,128,127,127,129,127,0
6542,128,128,128,127,127,128,127,121,0
6545,126,129,129,128,127,125,129,120,0
6548,126,125,129,139,127,126,131,123,0
6552,128,128,125,122,128,128,127,127,0
6555,129,128,128,120,128,128,128,123,0
6558,127,128,128,125,127,132,126,122,0
6562,127,129,128,123,128,130,127,130,0
6565,128,128,128,122,128,126,129,129,0
6568,129,128,127,130,129,127,127,127,0
6571,127,129,128,126,128,126,126,128,0
6575,127,127,129,135,129,124,129,128,0
6578,128,128,126,123,128,128,127,129,0
6581,128,128,126,124,127,124,127,130,0
6584,127,128,128,135,129,127,132,125,0
6587,127,121,129,139,126,127,130,121,0
6592,128,128,127,121,128,131,128,133,0
6596,128,130,127,121,128,130,127,132,0
6600,128,128,125,129,128,128,126,126,0
6606,127,128,126,126,129,131,127,132,0
6615,128,129,126,127,127,128,126,132,0
6619,129,129,128,127,127,127,127,128,0
6622,126,127,128,128,128,124,131,120,0
6626,126,125,128,130,127,128,126,130,0
6629,128,128,128,123,127,128,128,128,0
6633,128,128,126,127,128,129,127,129,0
6636,128,129,127,128,127,127,127,127,0
6639,125,126,128,121,128,126,128,132,0
6642,128,127,128,123,127,128,127,128,0
6645,127,128,128,132,127,128,127,133,0
6648,127,128,126,138,128,124,126,127,0
6651,127,127,126,123,128,130,128,126,0
6653,128,128,126,126,127,129,129,125,0
6656,129,128,128,129,127,127,127,125,0
6660,126,126,129,137,125,129,132,122,0
6663,126,122,129,138,126,126,128,132,0
6666,128,130,127,119,128,128,126,133,0
6669,129,128,125,119,128,130,125,130,0
6673,128,128,127,124,130,131,125,128,0
6677,127,127,125,121,127,128,125,130,0
6680,128,128,126,124,128,127,126,124,0
6683,129,127,128,123,128,127,129,131,0
6687,128,129,129,130,128,130,129,131,0
6691,127,128,127,129,128,126,128,121,0
6695,127,124,128,132,128,124,128,128,0
6699,127,130,127,128,127,130,128,126,0
6702,128,128,126,129,128,130,129,122,0
6705,127,125,130,139,127,125,131,123,0
6710,127,127,128,123,128,128,127,131,0
6714,129,127,128,125,128,129,126,127,0
6717,128,128,127,125,127,127,128,133,0
6719,127,128,126,124,129,125,129,120,0
6722,127,128,126,123,128,128,128,131,0
6725,127,130,127,125,127,128,127,125,0
6727,128,128,128,125,128,131,128,120,0
6730,127,128,126,125,128,124,127,128,0
6732,127,129,128,136,128,128,128,130,0
6735,129,130,127,127,127,126,129,127,0
6738,128,128,127,132,128,128,128,126,0
6741,125,127,129,139,124,129,131,127,0
6743,127,122,129,137,126,128,131,124,0
6747,129,128,128,126,129,131,128,134,0
6750,129,131,126,123,128,126,127,134,0
6753,127,128,125,122,128,126,125,129,0
6756,127,126,128,128,128,125,126,126,0
6759,127,127,128,127,128,128,126,127,0
6763,128,127,128,126,128,128,126,128,0
6767,127,128,128,135,127,125,127,134,0
6771,127,128,126,123,128,127,126,130,0
6775,128,129,128,128,128,124,127,127,0
6778,128,128,128,123,128,129,128,127,0
6782,128,127,127,124,128,131,127,121,0
6785,125,125,129,139,126,130,129,129,0
6787,129,128,126,122,128,127,128,132,0
6791,129,129,126,123,128,125,126,128,0
6793,128,128,127,129,128,128,125,126,0
6796,126,128,128,126,129,124,128,124,0
6799,128,128,128,123,127,130,128,134,0
6810,129,129,128,126,127,128,127,132,0
6814,127,128,129,137,126,130,132,126,0
6821,127,123,128,137,127,126,127,132,0
6827,126,130,128,122,128,131,127,134,0
6831,129,129,128,121,128,129,127,123,0
6835,127,128,128,124,129,127,126,120,0
6837,126,127,126,124,127,130,127,129,0
6840,128,129,128,137,129,130,127,129,0
6843,129,129,128,133,128,128,128,125,0
6845,128,128,128,138,127,124,126,129,0
6848,127,127,129,138,126,127,131,125,0
6851,126,128,126,121,127,131,128,129,0
6853,129,127,126,121,128,128,126,130,0
6856,128,128,126,123,128,128,126,127,0
6859,127,127,126,126,128,128,128,129,0
6861,128,129,128,129,128,125,127,128,0
6864,128,128,128,127,127,127,126,127,0
6868,127,128,128,127,127,127,126,126,0
6871,125,128,127,123,128,127,128,127,0
6873,128,126,128,134,128,129,127,128,0
6877,128,128,128,125,127,128,128,134,0
6879,128,128,128,129,126,124,132,126,0
6882,127,122,128,137,126,126,130,120,0
6885,125,129,127,126,128,128,128,130,0
6889,128,128,128,121,127,131,128,132,0
6892,128,130,125,123,128,130,127,134,0
6895,126,129,126,125,129,125,125,124,0
6898,127,128,128,132,127,129,127,134,0
6901,129,129,128,125,128,128,127,124,0
6905,128,129,127,131,128,128,129,122,0
6907,125,128,128,129,129,126,128,122,0
6912,127,128,126,124,127,127,128,127,0
6915,129,130,127,122,127,126,126,128,0
6919,128,128,128,131,127,125,128,124,0
6925,127,126,129,136,127,125,129,122,0
6929,125,125,129,138,126,131,131,123,0
6933,129,127,126,121,128,125,126,129,0
6937,128,127,126,121,127,129,127,134,0
6939,125,127,126,122,127,131,127,129,0
6942,126,128,127,124,128,128,127,130,0
6946,127,127,126,123,128,129,127,133,0
6948,129,128,128,127,127,127,126,131,0
6953,126,128,126,137,127,127,131,122,0
6957,126,124,128,138,127,127,131,121,0
6961,128,129,125,123,128,131,127,134,0
6963,129,129,128,122,128,127,126,128,0
6966,127,128,128,118,128,131,126,131,0
6969,128,129,128,122,128,128,127,124,0
6972,129,129,127,128,127,124,127,129,0
6974,128,127,126,124,128,123,127,127,0
6978,126,128,127,131,127,130,127,130,0
6981,127,128,129,139,126,127,130,124,0
6984,128,127,126,121,127,127,127,130,0
6988,128,129,128,125,128,127,128,131,0
6991,128,126,129,141,126,126,131,123,0
6994,126,124,129,133,127,127,126,132,0
6999,127,127,128,127,128,129,127,131,0
7003,129,127,125,122,128,130,126,134,0
7006,128,128,126,122,128,127,126,125,0
7009,126,128,128,124,128,130,127,128,0
7012,128,128,128,123,128,129,129,127,0
7015,128,130,128,127,127,124,130,127,0
7018,127,127,127,125,128,126,129,118,0
7022,127,123,130,142,126,126,134,121,0
7027,128,128,126,126,128,126,128,129,0
7031,128,128,127,125,128,125,128,130,0
7035,127,129,129,128,128,124,126,126,0
7038,127,128,126,126,128,129,127,125,0
7040,128,128,127,127,128,129,127,127,0
7043,128,127,127,127,127,128,128,128,0
7045,127,128,128,132,128,126,126,128,0
7049,126,127,128,142,126,129,131,123,0
7052,127,124,129,139,128,129,127,134,0
7055,129,129,128,121,127,132,128,133,0
7058,128,128,126,124,128,128,126,133,0
7060,127,127,129,125,128,126,125,124,0
7063,128,128,126,120,128,132,127,133,0
7067,129,129,127,121,127,129,127,123,0
7070,127,128,128,137,127,124,126,128,0
7073,127,129,128,128,128,127,128,127,0
7077,127,128,128,125,127,129,129,128,0
7080,129,128,128,124,127,124,128,124,0
7084,128,126,129,140,126,125,129,121,0
7087,127,124,130,136,126,128,132,125,0
7091,127,126,128,120,127,131,127,133,0
7093,129,130,126,119,127,131,127,133,0
7097,128,128,127,121,127,130,127,132,0
7100,127,127,128,122,128,128,126,128,0
7107,127,127,125,125,127,128,128,126,0
7111,129,128,128,132,127,127,129,129,0
7116,128,127,128,129,128,127,127,126,0
7120,127,125,129,141,126,126,126,125,0
7123,127,128,127,133,127,129,128,132,0
7126,129,129,128,126,128,125,127,126,0
7130,129,128,128,127,127,128,128,132,0
7135,125,127,128,122,128,124,129,121,0
7141,126,125,130,137,127,129,128,131,0
7146,129,129,126,123,128,128,126,133,0
7148,129,127,128,123,128,128,126,129,0
7152,127,127,128,127,128,126,126,128,0
7155,124,126,129,131,127,128,127,133,0
7158,129,130,129,127,128,124,127,129,0
7162,128,129,127,126,128,125,127,133,0
7165,128,128,129,139,126,129,131,126,0
7168,126,123,130,135,127,126,126,131,0
7172,129,129,126,121,128,131,126,131,0
7175,126,129,128,124,128,126,125,130,0
7178,127,127,128,122,128,131,127,131,0
7181,127,128,127,136,127,128,127,129,0
7184,128,129,128,135,127,130,128,133,0
7187,128,128,128,126,127,127,128,130,0
7189,127,127,128,127,128,128,126,124,0
7192,126,126,128,128,128,125,128,128,0
7195,129,128,128,126,128,124,126,126,0
7197,128,129,128,135,127,128,127,130,0
7201,127,128,128,126,128,125,128,117,0
7204,126,129,129,140,126,127,133,125,0
7208,127,126,125,122,128,132,128,135,0
7210,129,129,128,122,128,129,128,134,0
7214,128,129,128,126,127,131,127,129,0
7218,128,128,126,127,128,125,127,123,0
7222,128,127,126,125,128,129,128,126,0
7225,127,128,128,129,128,130,127,121,0
7228,128,127,128,141,127,125,130,121,0
7234,127,125,130,138,126,130,127,130,0
7239,128,129,126,124,128,129,128,132,0
7246,128,128,126,123,128,126,127,131,0
7249,128,129,128,126,128,125,127,131,0
7253,126,126,128,136,127,124,128,129,0
7256,128,128,126,122,128,128,127,134,0
7260,129,129,126,125,128,127,127,123,0
7263,128,129,126,129,127,127,126,126,0
7266,127,127,129,136,126,128,130,121,0
7269,128,124,129,139,129,130,129,133,0
7272,129,129,129,125,129,127,127,130,0
7276,128,126,128,123,127,129,127,131,0
7279,127,128,128,124,129,123,128,132,0
7282,128,128,126,126,127,126,128,134,0
7287,129,127,126,129,127,132,128,134,0
7290,128,126,128,132,127,129,127,132,0
7292,125,126,129,138,125,128,132,126,0
7296,128,126,126,121,128,129,127,131,0
7299,129,128,126,122,128,129,127,130,0
7302,128,126,128,128,128,130,127,132,0
7305,127,127,126,122,128,125,125,124,0
7309,127,127,126,125,127,131,129,128,0
7312,129,128,126,126,127,131,127,133,0
7315,128,129,127,131,128,130,125,129,0
7318,127,128,129,129,128,126,128,119,0
7321,128,123,129,140,125,126,133,121,0
7325,129,127,128,123,128,130,128,134,0
7328,129,128,126,122,128,130,126,129,0
7331,125,127,128,126,128,127,126,118,0
7334,127,128,128,122,128,127,126,127,0
7340,127,128,128,123,128,127,126,130,0
7346,129,129,129,131,128,128,127,128,0
7352,127,128,128,136,126,126,129,122,0
7355,126,127,125,123,128,129,127,133,0
7359,129,127,126,125,128,128,126,130,0
7362,129,128,126,126,127,129,127,120,0
7366,125,128,127,133,128,128,127,124,0
7369,127,127,126,125,128,128,129,126,0
7372,129,128,127,132,127,129,128,128,0
7375,129,128,126,127,127,126,127,122,0
7378,127,123,129,134,125,130,131,125,0
7380,126,127,128,133,128,131,126,130,0
7383,128,129,126,121,127,130,128,127,0
7386,128,130,125,119,128,127,125,133,0
7389,127,129,128,124,128,129,129,121,0
7392,126,127,126,125,128,125,128,132,0
7395,129,127,128,130,128,127,129,125,0
7399,127,128,126,128,128,128,127,129,0
7404,127,128,128,130,127,124,126,129,0
7412,125,126,128,127,127,130,128,131,0
7417,129,128,127,124,127,125,127,128,0
7421,129,129,129,132,127,127,128,122,0
7426,127,125,129,138,127,125,130,120,0
7429,126,125,129,136,126,130,129,129,0
7432,128,128,126,125,127,131,128,134,0
7436,128,128,125,122,128,131,127,134,0
7439,128,128,126,122,127,130,129,132,0
7442,127,127,126,130,127,127,132,119,0
7445,128,128,126,127,127,128,127,130,0
7449,128,128,128,128,128,125,127,131,0
7453,128,127,129,134,128,125,130,117,0
7458,126,125,129,138,128,126,128,133,0
7463,128,127,127,122,127,130,127,129,0
7466,128,129,128,122,127,129,127,132,0
7470,128,128,127,125,127,127,128,126,0
7473,127,128,128,125,128,124,128,128,0
7476,126,127,128,121,128,128,128,132,0
7480,128,128,128,124,128,127,129,118,0
7483,126,126,128,122,128,127,127,130,0
7486,127,125,129,139,125,129,131,121,0
7489,128,124,129,136,126,126,127,135,0
7491,128,129,127,121,128,132,128,128,0
7494,127,128,127,121,128,131,127,130,0
7497,127,128,127,121,128,132,128,131,0
7500,126,129,126,124,128,129,127,133,0
7503,129,130,128,124,128,127,126,131,0
7506,128,127,126,125,127,128,125,126,0
7509,127,128,128,123,128,131,126,131,0
7513,127,128,127,125,127,130,127,131,0
7517,129,128,128,133,128,125,126,126,0
7521,128,128,127,127,128,125,127,119,0
7526,127,124,130,141,127,125,132,118,0
7529,126,127,127,128,128,127,129,132,0
7532,129,129,128,127,128,126,127,129,0
7535,128,128,126,128,128,125,126,123,0
7538,127,127,128,135,129,126,128,126,0
7541,126,127,126,120,128,130,128,134,0
7543,129,128,128,121,128,128,127,134,0
7546,129,128,128,135,127,124,126,120,0
7549,127,126,129,135,127,125,130,120,0
7552,127,126,130,135,127,133,128,132,0
7556,129,128,127,119,128,132,127,129,0
7562,128,128,126,121,128,130,128,132,0
7568,127,127,126,124,128,127,128,131,0
7570,128,129,126,126,128,125,127,125,0
7573,128,128,126,129,127,126,127,132,0
7577,128,128,126,125,127,124,128,127,0
7579,127,129,130,137,127,124,132,121,0
7582,127,126,128,126,128,129,129,130,0
7585,128,128,127,123,127,129,128,129,0
7588,128,127,126,125,127,128,129,129,0
7591,128,128,129,137,126,128,131,121,0
7595,126,123,129,137,126,127,128,131,0
7599,128,127,125,129,127,128,127,133,0
7602,129,129,128,123,127,127,126,129,0
7605,127,127,126,122,127,128,126,129,0
7608,126,127,128,123,128,127,128,128,0
7610,128,128,128,125,127,129,127,133,0
7615,129,129,129,127,128,128,128,124,0
7618,125,127,129,139,126,124,126,128,0
7621,127,125,129,138,127,126,127,128,0
7624,127,130,128,119,127,128,125,131,0
7627,129,128,126,121,128,129,126,123,0
7630,127,129,128,122,128,125,126,118,0
7633,127,127,126,123,127,130,128,127,0
7636,128,128,127,125,128,125,127,133,0
7639,128,127,127,128,127,126,130,120,0
7642,127,122,130,139,126,126,132,122,0
7645,127,124,129,137,128,127,127,133,0
7648,127,128,128,127,128,129,127,135,0
7651,129,129,128,127,128,126,126,127,0
7655,128,128,126,120,128,127,126,131,0
7660,128,128,126,121,127,127,126,132,0
7665,128,127,129,125,128,130,128,126,0
7669,128,129,126,122,128,125,127,131,0
7672,128,128,128,127,128,124,127,127,0
7675,127,128,127,131,128,128,127,125,0
7678,128,127,127,126,127,128,129,131,0
7681,128,129,129,129,129,124,129,123,0
7685,128,128,126,133,128,123,128,121,0
7688,126,125,128,138,126,130,130,123,0
7691,127,125,128,124,128,128,127,134,0
7694,129,129,128,122,128,128,127,134,0
7698,128,127,126,122,128,127,126,129,0
7701,127,128,127,129,128,127,127,123,0
7705,126,128,128,125,127,129,129,127,0
7714,128,129,128,128,127,127,128,132,0
7719,128,128,129,127,128,125,127,132,0
7722,127,128,129,134,126,125,132,124,0
7725,127,124,129,138,126,127,131,122,0
7729,129,129,125,120,128,131,128,135,0
7733,128,128,125,121,128,129,128,131,0
7737,127,128,126,123,129,127,126,130,0
7742,128,128,126,122,129,129,127,127,0
7746,129,128,128,122,127,128,128,128,0
7750,129,129,128,123,127,126,127,133,0
7753,127,129,128,127,128,125,128,124,0
7756,127,129,128,139,127,124,128,131,0
7759,129,129,128,124,127,130,128,128,0
7763,128,127,126,123,127,131,125,129,0
7766,128,128,127,131,128,129,125,129,0
7769,127,129,128,128,128,127,127,124,0
7774,128,127,129,132,127,130,128,133,0
7779,128,124,129,138,125,127,131,124,0
7782,127,122,128,138,126,124,124,133,0
7784,125,128,128,119,128,127,126,126,0
7788,126,128,127,122,127,131,128,128,0
7790,127,128,125,125,128,131,128,131,0
7794,127,128,126,123,128,125,125,128,0
7797,128,127,128,122,129,124,128,130,0
7801,128,129,127,130,127,130,129,127,0
7804,128,128,126,126,127,124,128,131,0
7808,127,128,128,129,128,130,129,119,0
7812,126,128,128,126,127,127,130,131,0
7815,128,130,129,134,127,126,128,132,0
7818,127,129,126,136,127,127,127,130,0
7821,127,127,130,140,126,123,131,117,0
7824,126,125,129,137,128,129,126,130,0
7828,128,128,126,124,128,129,127,132,0
7831,128,129,127,124,128,129,128,131,0
7835,128,128,126,131,129,127,126,124,0
7839,125,127,128,125,128,126,126,128,0
7843,128,129,126,123,128,128,129,127,0
7845,128,128,128,127,128,125,126,129,0
7848,125,129,128,124,128,128,128,119,0
7851,127,129,126,122,128,129,131,124,0
7854,128,123,128,134,126,128,129,123,0
7857,128,127,127,121,130,131,126,126,0
7860,128,127,128,122,128,127,126,133,0
7863,127,126,126,120,128,127,128,124,0
7866,128,128,125,124,128,129,129,132,0
7869,126,130,128,122,128,130,129,136,0
7874,126,130,126,129,128,127,128,129,0
7880,127,126,128,128,128,131,128,129,0
7883,128,129,128,129,128,127,128,131,0
7886,128,128,128,126,127,125,126,125,0
7889,125,128,128,130,127,125,128,130,0
7892,127,128,127,126,128,128,128,128,0
7895,127,129,128,126,127,127,129,129,0
7898,128,129,129,137,127,125,128,130,0
7902,129,129,128,124,128,125,126,123,0
7905,126,124,130,136,125,128,131,121,0
7909,127,124,129,134,128,131,128,132,0
7911,129,128,125,119,128,128,124,133,0
7914,126,129,127,120,128,128,124,126,0
7917,127,129,128,122,128,131,126,123,0
7920,127,128,128,130,127,129,128,127,0
7923,129,128,127,123,127,127,127,130,0
7926,128,127,129,126,127,126,130,122,0
7931,124,126,129,140,127,125,126,132,0
7934,128,128,126,123,127,127,127,130,0
7938,129,129,127,124,127,130,128,130,0
7941,128,127,128,123,128,127,126,124,0
7945,127,126,129,134,128,129,128,132,0
7948,127,128,128,123,128,128,126,124,0
7950,128,128,127,125,128,129,128,127,0
7953,128,127,128,125,128,131,126,125,0
7957,127,127,128,138,127,130,129,121,0
7960,126,123,129,138,126,124,126,131,0
7963,129,128,126,120,128,131,128,129,0
7967,128,130,127,125,127,125,127,133,0
7970,127,128,126,122,128,124,124,126,0
7974,127,128,126,124,128,128,127,130,0
7978,128,128,128,123,128,129,128,132,0
7984,128,128,127,130,127,127,128,129,0
7988,127,128,128,132,129,129,129,120,0
7992,126,125,130,138,126,129,128,130,0
7996,129,129,127,121,128,128,127,134,0
7998,129,129,128,122,128,127,125,124,0
8002,127,127,128,127,129,125,127,131,0
8005,127,126,128,122,128,128,128,130,0
8009,129,129,127,127,127,127,128,131,0
8016,129,130,126,127,128,124,129,118,0
8019,127,125,130,138,125,126,131,124,0
8025,126,123,129,134,127,131,131,132,0
8028,129,130,127,121,128,129,127,135,0
8031,129,130,125,123,128,128,125,126,0
8035,127,127,126,123,128,126,125,130,0
8038,125,127,127,125,128,126,127,125,0
8041,128,129,128,121,127,128,128,132,0
8045,129,129,128,119,128,127,126,130,0
8048,127,128,128,137,128,124,125,130,0
8051,127,127,128,126,128,124,126,126,0
8055,128,129,127,128,128,128,127,124,0
8057,128,129,127,127,127,126,127,122,0
8060,127,127,129,140,125,128,131,123,0
8063,126,123,129,140,126,125,126,133,0
8066,127,128,125,125,128,129,126,129,0
8069,128,128,126,123,128,128,126,128,0
8072,128,130,129,130,128,125,129,118,0
8075,127,128,125,128,128,125,126,131,0
8077,128,129,128,129,129,125,128,133,0
8080,128,129,128,126,128,128,126,130,0
8082,127,127,128,126,128,130,128,124,0
8086,127,126,129,135,128,128,127,124,0
8091,128,128,126,129,127,126,129,128,0
8094,128,128,128,128,127,125,128,132,0
8097,128,129,128,133,127,128,129,117,0
8101,126,123,129,138,126,126,131,121,0
8103,126,129,126,118,127,126,130,132,0
8106,127,129,127,123,128,128,128,132,0
8109,127,127,129,126,127,130,128,126,0
8112,127,128,125,123,130,125,128,120,0
8114,127,128,126,124,128,131,129,130,0
8117,129,128,128,127,127,126,127,130,0
8121,128,129,128,128,127,128,126,128,0
8125,127,127,128,129,128,131,128,117,0
8128,127,125,126,123,127,126,128,132,0
8131,129,129,128,127,128,124,126,129,0
8134,128,128,127,135,128,125,127,129,0
8138,127,128,128,128,128,129,128,126,0
8142,125,126,130,140,126,127,130,128,0
8145,129,128,127,122,127,129,127,135,0
8150,129,129,128,135,127,128,126,132,0
8153,127,127,128,126,127,128,129,119,0
8157,127,123,128,137,126,127,131,119,0
8160,129,130,127,120,128,131,126,132,0
8164,127,130,127,122,128,128,127,134,0
8168,128,128,128,123,128,125,126,131,0
8171,125,127,128,126,128,127,126,128,0
8175,128,127,128,126,128,127,127,132,0
8178,129,128,127,123,128,125,128,120,0
8181,125,127,128,126,128,131,126,127,0
8185,127,128,127,132,128,128,128,127,0
8189,128,129,128,124,128,129,127,129,0
8195,129,129,128,131,127,129,126,126,0
8199,126,127,127,128,129,130,129,121,0
8204,126,125,128,139,127,125,126,131,0
8207,129,129,126,123,127,128,128,133,0
8210,128,129,127,127,128,130,126,127,0
8213,127,128,128,123,128,127,130,125,0
8217,126,122,129,135,126,129,128,132,0
8221,128,129,127,119,128,128,127,127,0
8224,127,130,128,123,128,129,126,126,0
8227,127,128,128,125,129,128,126,128,0
8230,126,125,129,124,128,128,126,125,0
8233,128,128,126,129,127,128,126,130,0
8237,129,128,127,126,127,128,127,118,0
8240,127,128,126,125,128,124,126,127,0
8243,126,127,128,125,127,125,126,125,0
8247,128,128,129,128,127,128,127,128,0
8250,128,129,128,130,128,126,127,121,0
8254,128,127,126,127,128,125,130,117,0
8258,126,124,129,139,127,126,131,119,0
8260,127,129,125,123,128,129,128,134,0
8264,129,128,128,122,128,131,126,127,0
8268,126,126,128,129,128,127,126,130,0
8271,126,127,128,128,129,124,130,122,0
8275,128,126,127,128,127,128,130,130,0
8278,129,128,128,126,128,129,127,134,0
8281,129,128,128,126,129,128,131,126,0
8283,127,122,130,136,126,124,126,132,0
8286,127,128,128,118,128,128,127,133,0
8289,127,128,128,122,128,128,126,133,0
8292,127,130,128,130,128,125,126,131,0
8296,127,128,126,130,128,129,129,132,0
8302,128,130,127,128,128,124,128,126,0
8309,129,129,129,125,128,128,127,125,0
8313,125,126,129,126,128,130,126,128,0
8320,127,128,128,126,128,127,126,123,0
8323,127,128,126,125,127,129,126,132,0
8326,129,128,126,125,127,125,127,130,0
8330,127,126,130,141,127,125,131,124,0
8337,126,122,130,138,126,126,130,119,0
8342,127,127,128,125,127,128,127,129,0
8349,128,128,128,124,127,132,127,133,0
8355,127,128,125,125,128,129,128,131,0
8360,127,128,125,131,128,126,127,128,0
8365,126,128,128,128,128,125,127,130,0
8368,129,128,128,127,128,125,126,128,0
8371,126,129,128,131,128,124,125,128,0
8375,126,128,127,132,128,129,127,125,0
8379,126,124,129,135,127,131,128,133,0
8382,129,129,128,124,128,124,130,132,0
8386,129,129,128,132,128,123,127,129,0
8389,128,127,128,131,127,126,132,122,0
8392,127,124,129,139,128,129,128,130,0
8395,129,129,127,123,128,127,126,127,0
8398,129,127,128,124,128,129,127,130,0
8401,127,129,127,131,127,128,128,118,0
8404,127,129,128,132,128,129,127,131,0
8406,129,128,127,124,127,127,127,132,0
8409,129,128,128,131,128,125,128,119,0
8411,124,128,126,127,127,127,126,129,0
8414,127,124,129,137,126,129,131,121,0
8418,128,126,127,125,128,128,126,132,0
8421,128,130,128,122,128,129,125,127,0
8425,127,128,128,121,128,131,126,129,0
8430,127,129,128,127,128,125,128,131,0
8434,127,128,128,124,127,125,128,131,0
8439,128,128,129,126,127,131,128,130,0
8442,127,128,128,124,128,126,129,122,0
8445,126,125,129,137,127,130,127,132,0
8449,129,129,126,122,128,126,127,130,0
8453,128,127,129,125,128,126,126,128,0
8456,127,128,128,128,128,125,125,124,0
8459,125,126,129,137,126,127,131,124,0
8461,126,129,128,121,128,132,128,134,0
8465,129,128,127,126,128,129,125,130,0
8468,128,130,126,120,128,131,125,129,0
8471,127,128,128,122,128,131,126,128,0
8476,128,129,128,125,127,129,126,131,0
8478,128,128,126,128,128,125,127,133,0
8481,128,129,128,135,128,129,126,128,0
8484,127,127,128,128,127,128,132,123,0
8488,128,122,129,137,125,127,131,125,0
8491,128,130,128,123,127,130,129,132,0
8494,126,128,126,128,127,129,128,132,0
8498,125,126,128,126,127,127,127,129,0
8502,127,127,128,127,127,130,129,130,0
8505,129,129,126,125,128,125,126,127,0
8509,127,126,128,126,128,123,126,121,0
8512,127,126,129,140,127,125,130,124,0
8516,127,128,128,121,128,128,127,125,0
8518,129,129,128,125,128,129,126,128,0
8521,128,126,129,136,128,130,127,125,0
8524,127,128,126,123,128,126,127,129,0
8529,128,128,128,121,128,126,126,127,0
8533,129,127,128,129,127,129,128,127,0
8537,128,128,128,132,128,125,129,120,0
8542,127,120,129,139,126,125,132,123,0
8546,128,127,127,123,128,128,127,128,0
8550,129,129,125,121,129,132,127,132,0
8553,129,130,126,126,128,126,127,132,0
8556,125,127,128,123,128,127,126,121,0
8559,127,128,128,127,128,125,128,132,0
8563,127,130,128,125,128,127,126,126,0
8567,127,126,126,126,128,125,127,131,0
8571,128,129,128,126,128,129,125,128,0
8575,127,128,126,121,128,132,126,130,0
8579,129,129,128,127,127,131,127,131,0
8582,127,127,129,124,127,130,128,122,0
8585,127,124,129,138,125,127,131,123,0
8589,126,123,129,139,128,128,127,127,0
8593,127,127,126,123,128,129,128,129,0
8596,127,128,126,123,127,127,126,130,0
8601,125,127,128,126,128,128,127,129,0
8605,127,129,126,121,127,131,128,129,0
8608,129,130,127,126,127,127,127,133,0
8611,129,130,128,129,128,124,128,124,0
8615,127,128,126,129,127,128,126,132,0
8623,127,129,128,124,128,128,127,120,0
8626,129,131,127,127,128,128,128,121,0
8631,127,127,129,124,130,126,130,120,0
8634,127,125,129,136,127,124,130,124,0
8638,127,129,128,120,127,132,128,131,0
8641,128,129,126,123,128,127,127,131,0
8646,128,127,128,124,129,128,126,130,0
8652,127,128,126,127,128,127,127,131,0
8660,126,129,128,124,128,127,128,129,0
8663,128,129,126,127,128,127,128,134,0
8666,128,129,128,129,127,128,130,117,0
8669,127,125,130,136,126,125,130,123,0
8672,126,123,128,133,129,132,127,134,0
8676,128,129,126,124,128,127,127,129,0
8679,128,128,128,126,128,127,126,130,0
8682,127,128,125,129,128,129,127,129,0
8686,127,127,128,130,127,129,129,127,0
8689,128,128,128,127,127,126,129,132,0
8692,129,128,128,123,127,126,126,133,0
8696,128,128,129,127,128,126,125,121,0
8699,125,126,128,134,127,128,128,126,0
8702,128,128,127,129,127,126,129,133,0
8704,129,129,128,136,127,128,126,125,0
8708,128,128,127,136,127,126,130,121,0
8711,127,124,129,138,126,127,131,123,0
8714,126,128,128,124,128,131,128,132,0
8717,129,128,126,121,128,127,126,129,0
8722,128,128,126,121,128,126,126,133,0
8726,126,130,128,128,128,125,125,123,0
8730,128,128,128,128,128,129,126,128,0
8732,128,129,128,129,128,127,127,123,0
8735,128,127,129,128,127,126,127,128,0
8738,126,127,126,128,127,124,130,119,0
8742,127,124,129,129,127,128,129,133,0
8746,128,129,128,127,127,125,129,120,0
8755,125,128,128,133,127,127,129,121,0
8760,128,126,129,133,126,130,130,126,0
8751,127,128,128,125,127,129,128,121,0
8765,129,125,128,131,127,130,125,131,0
8770,126,129,128,118,128,130,125,131,0
8774,127,128,127,119,128,127,125,127,0
8777,126,127,128,121,128,125,125,125,0
8780,129,127,126,124,128,127,127,128,0
8784,128,129,128,122,127,128,127,129,0
8787,128,128,128,123,128,127,126,126,0
8790,127,127,128,124,128,129,127,127,0
8797,128,127,129,127,128,124,127,121,0
8793,127,128,128,122,128,127,126,128,0
8800,127,125,128,135,127,127,129,117,0
8803,127,126,129,137,126,129,129,135,0
8806,129,127,126,121,127,131,127,128,0
8809,129,128,126,120,128,131,127,130,0
8813,128,128,128,128,128,126,126,128,0
8817,126,127,126,125,128,125,127,132,0
8820,129,129,128,126,127,129,128,125,0
8823,128,128,126,130,126,124,130,119,0
8826,127,125,129,136,127,128,130,122,0
8829,126,128,125,119,128,131,128,129,0
8832,128,127,128,123,128,127,128,133,0
8835,128,127,129,123,128,128,128,125,0
8839,127,127,128,127,130,124,125,129,0
8843,127,127,128,130,128,127,127,122,0
8846,128,129,129,126,128,129,125,127,0
8850,129,129,128,123,127,126,126,131,0
8853,128,126,129,138,126,128,132,126,0
8857,127,123,129,134,127,125,126,131,0
8859,129,129,128,126,129,128,126,130,0
8866,128,129,126,123,128,129,127,133,0
8869,128,128,126,129,128,130,126,127,0
8873,127,129,126,128,128,125,128,130,0
8876,129,127,128,123,128,127,127,125,0
8879,128,127,128,128,128,127,128,123,0
8882,125,126,129,139,127,126,125,123,0
8887,127,126,128,129,127,126,127,132,0
8891,128,129,127,133,127,129,129,118,0
8893,129,128,127,128,128,130,127,130,0
8897,128,129,128,135,129,125,127,130,0
8900,127,129,128,122,128,126,129,125,0
8903,128,129,127,128,127,131,128,128,0
8906,128,128,128,122,128,125,129,119,0
8909,126,125,128,138,125,128,132,126,0
8912,126,123,129,136,127,125,127,134,0
8915,126,127,128,127,128,130,129,133,0
8921,129,129,126,122,128,126,126,127,0
8925,128,128,128,127,127,131,128,126,0
8928,127,127,128,126,127,127,128,131,0
8931,128,129,128,122,128,127,128,129,0
8935,128,129,128,123,127,125,129,122,0
8938,128,127,128,126,128,129,129,120,0
8941,127,128,128,126,127,126,128,117,0
8945,126,128,128,124,128,127,129,131,0
8948,129,128,127,127,128,130,127,129,0
8951,128,128,127,118,128,125,126,132,0
8955,128,128,127,122,127,125,130,118,0
8959,127,125,129,138,126,126,130,125,0
8961,128,129,126,121,128,131,127,130,0
8966,128,130,126,122,128,127,126,134,0
8970,127,128,126,122,128,125,125,130,0
8974,128,128,127,126,128,128,128,127,0
8980,128,128,126,122,128,126,127,129,0
8983,128,130,127,123,127,126,132,125,0
8986,127,123,130,136,126,126,130,120,0
8990,127,129,127,124,128,127,128,130,0
8993,129,131,126,123,128,126,126,127,0
8995,126,127,128,128,128,124,129,132,0
8998,126,127,126,125,128,126,129,131,0
9001,128,127,127,123,127,127,129,131,0
9003,127,128,127,123,128,128,127,130,0
9007,129,129,129,135,127,126,128,130,0
9010,127,128,128,124,128,126,127,125,0
9013,125,128,128,127,128,128,127,125,0
9016,128,129,127,126,128,130,128,131,0
9019,128,127,126,129,128,125,126,121,0
9022,127,127,128,137,126,129,132,122,0
9025,127,122,128,138,129,131,127,132,0
9029,129,129,126,123,128,128,128,119,0
9031,128,129,126,124,129,128,126,130,0
9034,127,127,128,123,128,128,126,128,0
9037,127,128,128,120,128,131,127,130,0
9040,129,129,128,119,127,129,125,132,0
9043,128,130,126,120,128,126,126,128,0
9046,126,128,128,122,127,128,127,123,0
9049,127,129,128,127,128,125,126,129,0
9052,128,129,127,128,128,124,128,130,0
9055,128,127,129,139,126,128,130,121,0
9058,128,125,129,135,127,126,130,120,0
9061,127,125,128,135,126,130,127,131,0
9065,126,130,125,120,128,129,125,133,0
9070,129,130,125,121,127,128,125,132,0
9075,126,128,128,124,128,126,125,128,0
9080,125,126,128,126,127,128,127,125,0
9087,129,129,128,131,127,125,126,132,0
9084,128,128,127,131,128,127,127,134,0
9090,126,129,128,134,127,128,126,126,0
9094,127,127,128,125,128,130,128,128,0
9097,128,129,127,130,127,125,126,124,0
9100,128,128,129,128,128,128,126,130,0
9103,128,128,128,137,127,128,131,125,0
9107,127,122,129,139,126,125,127,127,0
9110,128,129,126,127,128,128,129,132,0
9113,129,128,127,124,128,127,128,134,0
9117,128,128,126,127,127,128,128,118,0
9121,127,128,128,129,128,131,128,131,0
9124,128,128,128,124,128,127,126,126,0
9128,129,127,127,126,127,126,129,130,0
9131,128,129,127,128,128,123,126,123,0
9135,128,128,129,128,128,124,127,130,0
9138,128,127,129,129,127,128,128,128,0
9141,126,127,129,140,126,130,130,123,0
9145,127,126,129,137,127,126,129,121,0
9148,127,126,129,133,127,126,130,126,0
9152,126,128,128,122,128,132,126,133,0
9155,130,127,127,120,128,128,126,134,0
9158,126,130,127,121,128,131,127,133,0
9161,127,127,127,124,128,127,128,130,0
9164,128,128,128,129,127,126,128,128,0
9169,129,128,126,129,128,127,127,128,0
9172,128,127,128,130,128,125,127,129,0
9177,126,128,128,129,128,126,128,129,0
9181,127,128,126,126,128,128,127,122,0
9187,128,127,128,127,128,129,128,129,0
9190,128,128,128,124,127,124,130,121,0
9193,126,125,130,139,127,126,129,120,0
9197,127,124,128,119,128,132,127,133,0
9200,129,129,125,121,128,132,128,132,0
9203,129,129,126,127,128,128,127,133,0
9207,127,128,126,125,127,131,125,121,0
9210,127,126,129,136,126,128,125,132,0
9213,129,129,126,120,128,128,125,132,0
9216,129,129,127,121,128,130,127,128,0
9219,127,129,127,129,128,121,126,126,0
9231,125,128,128,132,127,126,127,128,0
9235,129,127,127,127,128,127,128,126,0
9238,128,129,128,133,127,123,127,121,0
9242,126,124,129,139,126,127,131,126,0
9246,126,123,129,132,128,129,125,134,0
9249,129,128,125,122,128,129,125,125,0
9253,127,127,128,120,128,131,125,128,0
9256,127,128,126,125,128,125,125,127,0
9261,127,128,126,122,128,131,127,130,0
9263,128,128,128,124,128,128,126,125,0
9266,128,127,128,124,128,125,126,124,0
9270,127,129,129,125,128,130,128,124,0
9273,127,128,128,128,128,124,127,129,0
9275,128,128,129,129,128,128,128,119,0
9279,128,129,128,129,127,128,130,118,0
9283,126,125,129,137,126,126,131,124,0
9287,125,127,126,126,128,128,129,133,0
9292,129,128,126,127,127,125,128,132,0
9295,129,128,127,128,127,125,128,131,0
9300,128,128,128,128,127,130,129,122,0
9306,126,128,126,126,128,125,127,128,0
9309,129,129,126,125,128,129,126,132,0
9311,129,128,125,129,127,124,128,132,0
9314,127,128,126,126,128,127,130,121,0
9317,126,124,129,138,126,129,130,123,0
9320,128,128,127,126,127,129,126,135,0
9323,129,128,126,120,128,128,126,129,0
9325,127,129,128,122,128,129,125,123,0
9329,127,128,126,120,128,129,126,129,0
9332,128,128,128,122,128,129,128,129,0
9334,128,128,128,131,127,130,127,122,0
9338,127,127,129,128,129,129,129,117,0
9341,126,122,129,141,125,127,132,121,0
9344,127,127,128,123,128,129,127,132,0
9352,128,128,128,123,127,131,129,128,0
9356,127,127,128,121,128,125,128,119,0
9359,125,128,126,123,128,126,126,127,0
9362,128,127,128,127,128,127,126,123,0
9366,129,129,128,128,126,128,127,124,0
9368,128,127,125,125,128,128,126,132,0
9371,127,127,126,125,128,130,129,123,0
9374,128,128,125,127,129,125,127,125,0
9389,128,128,128,127,127,127,126,130,0
9393,128,129,127,132,128,128,130,121,0
9396,126,126,129,138,127,126,131,120,0
9400,127,126,128,122,128,125,126,132,0
9403,127,130,126,118,127,133,126,133,0
9409,128,128,126,119,128,127,126,133,0
9414,126,128,126,123,128,128,127,127,0
9419,127,127,128,122,128,129,127,127,0
9422,128,128,128,123,128,130,129,127,0
9426,128,128,128,133,128,127,128,131,0
9429,126,128,129,130,127,129,128,121,0
9432,126,128,129,138,127,130,128,129,0
9435,129,129,128,128,127,131,129,127,0
9439,128,126,127,130,127,126,126,130,0
9444,127,128,128,131,130,125,130,120,0
9447,127,123,129,138,126,125,127,132,0
9451,129,128,126,119,128,129,126,134,0
9455,128,129,128,121,128,131,128,126,0
9459,127,129,127,126,128,127,128,131,0
9462,127,129,127,128,127,129,128,131,0
9465,129,129,128,124,128,125,125,128,0
9469,128,130,126,121,128,126,125,130,0
9475,128,127,126,122,128,125,125,128,0
9480,125,127,126,123,127,126,127,129,0
9483,129,129,126,123,128,129,128,126,0
9486,127,127,128,126,128,127,129,122,0
9489,126,123,129,141,126,128,130,121,0
9499,126,124,129,137,127,130,125,131,0
9502,129,129,127,127,130,130,126,128,0
9505,128,128,126,122,127,129,126,131,0
9508,127,128,125,122,128,129,127,127,0
9511,127,128,127,131,127,128,128,132,0
9513,127,128,126,122,127,125,129,129,0
9516,128,128,127,133,127,130,128,127,0
9519,127,128,128,129,128,128,128,127,0
9524,127,128,128,128,128,125,127,129,0
9530,127,130,127,124,128,125,128,128,0
9535,128,128,127,129,128,125,127,127,0
9541,125,126,129,135,127,125,130,117,0
9545,126,125,129,136,127,128,127,131,0
9549,128,128,126,122,128,128,128,135,0
9553,129,128,127,123,127,127,126,133,0
9556,128,130,128,123,128,127,127,122,0
9559,127,127,127,123,128,124,126,128,0
9563,129,127,127,128,128,127,129,129,0
9566,129,129,128,127,127,125,127,130,0
9575,128,128,127,136,127,125,128,119,0
9579,127,122,129,139,126,128,131,121,0
9582,127,124,128,125,128,129,129,133,0
9586,127,130,126,122,128,128,128,133,0
9589,128,128,126,126,128,125,128,127,0
9592,127,128,125,121,128,131,128,126,0
9595,125,129,128,124,128,128,127,130,0
9598,128,127,128,131,128,129,126,122,0
9601,128,127,126,125,127,130,126,124,0
9603,127,128,126,125,128,127,127,124,0
9611,127,128,128,135,128,128,128,133,0
9614,129,128,127,128,128,129,127,126,0
9618,127,127,129,135,126,127,129,119,0
9622,127,126,130,137,127,127,131,125,0
9624,127,125,128,120,128,129,128,133,0
9684,129,130,126,128,127,126,127,134,0
9695,128,128,128,121,128,126,125,129,0
9699,125,128,126,123,128,128,126,129,0
9749,128,129,128,126,128,125,126,122,0
9758,129,129,128,128,127,128,127,132,0
9766,128,129,127,129,127,125,127,130,0
9774,127,128,127,121,127,128,127,122,0
9779,127,127,128,128,127,125,128,128,0
9783,129,129,127,131,127,130,128,118,0
9789,126,128,127,122,128,125,128,125,0
9794,127,128,128,125,127,128,126,127,0
9798,126,125,130,139,126,128,130,123,0
9801,127,129,128,132,128,127,126,136,0
9805,128,129,126,122,128,129,125,125,0
9808,127,128,128,134,127,127,131,124,0
9811,127,122,129,138,126,126,131,121,0
9815,128,131,125,120,128,130,126,135,0
9819,128,128,128,120,127,130,127,134,0
9822,126,129,127,122,128,128,127,132,0
9832,128,128,126,129,128,125,126,129,0
9835,129,130,128,127,128,131,127,128,0
9839,126,129,128,131,128,127,127,131,0
9842,127,128,126,122,128,130,126,131,0
9846,127,128,128,128,127,131,128,125,0
9850,128,129,128,123,128,125,128,123,0
9885,128,128,128,129,127,124,125,126,0
9894,127,128,127,138,127,124,131,123,0
9898,126,122,130,138,126,126,128,128,0
9902,128,129,126,121,128,131,128,134,0
9907,129,128,126,123,128,126,129,132,0
9956,127,129,128,141,129,126,127,127,0
9966,127,127,128,124,127,130,129,130,0
9972,129,128,128,123,128,126,129,128,0
9977,128,129,127,128,128,127,127,131,0
9983,127,128,129,135,128,125,128,118,0
9988,125,127,126,125,128,129,129,129,0
9992,129,129,128,122,127,125,128,131,0
9997,128,127,127,125,128,129,127,124,0
10000,127,129,128,132,127,126,126,129,0
10003,127,127,128,130,127,127,127,124,0
10006,128,126,129,130,127,128,128,131,0
10009,128,128,127,129,128,129,127,120,0
10013,125,124,130,137,126,129,132,125,0
10016,127,122,129,137,129,131,126,131,0
10019,127,131,126,125,128,127,127,134,0
10023,129,128,126,121,127,128,125,130,0
10026,128,127,128,123,127,130,127,129,0
10029,127,129,128,130,128,127,126,129,0
10032,128,129,128,128,128,131,128,130,0
10036,129,129,128,135,127,128,128,121,0
10039,128,127,129,136,128,124,126,129,0
10042,127,128,128,126,128,131,127,120,0
10044,128,128,129,128,127,127,127,127,0
10048,129,128,129,129,128,126,127,127,0
10051,128,127,128,130,128,124,128,122,0
10054,126,125,130,134,125,129,130,124,0
10057,127,124,129,133,128,130,126,134,0
10060,129,129,125,121,127,130,127,131,0
10063,128,128,125,124,128,124,126,132,0
10067,128,128,127,128,128,126,126,129,0
10070,128,129,126,121,128,126,127,134,0
10073,129,129,126,123,127,128,126,125,0
10076,127,127,126,123,128,130,128,127,0
10079,127,126,130,139,127,126,131,122,0
10087,127,124,128,126,128,126,126,133,0
10091,129,130,126,124,128,127,128,130,0
10097,128,127,128,129,127,127,129,121,0
10100,126,124,129,140,126,124,128,126,0
10103,127,128,126,123,130,122,129,127,0
10106,129,128,126,126,128,125,126,126,0
10109,128,128,128,123,127,127,125,132,0
10112,126,128,126,125,128,127,126,124,0
10115,128,129,127,120,128,128,126,131,0
10154,129,128,128,126,128,130,128,131,0
10165,128,128,128,127,128,131,130,122,0
10182,127,122,128,137,126,129,130,122,0
10190,126,123,129,137,126,131,127,130,0
10195,129,131,128,123,128,127,125,128,0
10223,127,127,128,125,130,130,126,130,0
10230,127,128,127,128,128,127,126,130,0
10236,127,127,128,127,128,129,129,123,0
10241,129,128,126,123,127,127,129,131,0
10247,129,128,128,123,128,125,126,123,0
10252,126,126,127,129,128,124,126,126,0
10256,127,128,126,131,128,129,127,126,0
10259,129,128,127,124,128,126,126,129,0
10262,128,128,128,130,127,124,126,128,0
10265,127,127,126,130,128,124,128,119,0
10268,126,128,126,125,127,130,126,130,0
10271,129,129,127,127,127,128,127,121,0
10274,128,127,126,125,127,132,131,125,0
10277,127,121,129,137,126,127,132,125,0
10280,126,124,129,125,128,126,125,127,0
10289,127,128,128,128,128,128,127,129,0
10293,128,128,126,125,127,129,126,131,0
10297,127,128,126,126,128,131,126,131,0
10303,125,127,129,129,128,125,128,131,0
10309,127,128,127,128,127,125,128,132,0
10313,129,129,128,122,128,129,128,127,0
10320,127,128,128,128,128,126,125,128,0
10323,127,127,129,130,128,129,126,123,0
10327,128,127,129,130,127,126,127,126,0
10330,128,128,129,129,128,126,127,124,0
10333,125,126,129,134,126,126,130,120,0
10336,126,124,129,136,126,129,130,122,0
10340,128,129,125,121,127,132,127,131,0
10343,129,128,126,122,128,128,126,134,0
10346,128,128,126,123,128,127,127,129,0
10349,127,127,127,124,128,127,126,125,0
10357,128,129,126,127,128,128,127,123,0
10360,128,127,126,127,127,129,126,127,0
10364,127,127,128,129,127,128,129,120,0
10368,126,122,128,138,125,129,131,121,0
10371,127,126,126,120,128,127,126,130,0
10375,129,131,128,122,128,127,126,130,0
10378,128,128,128,125,128,129,126,129,0
10381,127,127,126,126,128,127,126,128,0
10384,127,128,126,121,128,130,128,126,0
10387,128,128,129,134,128,130,129,130,0
10391,128,129,128,136,129,127,126,132,0
10394,127,128,128,123,128,127,127,130,0
10424,127,128,128,125,128,127,127,130,0
10429,129,127,129,127,128,125,127,127,0
10433,126,126,129,133,128,131,127,122,0
10438,127,128,129,138,127,129,131,122,0
10442,126,125,128,119,127,130,127,131,0
10496,129,128,128,125,127,129,128,130,0
10514,129,127,127,126,127,125,125,130,0
10527,126,126,128,125,128,126,127,129,0
10532,126,128,127,125,128,130,128,128,0
10536,129,128,127,130,127,132,128,132,0
10539,128,129,128,129,128,127,128,128,0
10543,127,126,129,136,127,128,130,122,0
10546,127,125,129,131,127,132,129,129,0
10549,129,131,126,126,128,128,127,136,0
10553,129,128,127,123,127,126,127,133,0
10556,128,128,126,127,128,125,128,125,0
10559,127,129,128,121,127,128,127,127,0
10567,129,128,127,129,128,129,131,125,0
10562,129,128,128,129,127,128,127,133,0
10571,127,122,129,137,126,127,131,123,0
10575,127,128,127,120,128,129,128,133,0
10578,129,130,125,122,128,128,127,132,0
10583,128,128,128,123,128,130,127,130,0
10590,127,129,126,121,128,129,128,128,0
10587,127,128,126,124,127,125,129,118,0
10594,127,128,127,129,128,127,128,126,0
10600,129,128,128,128,128,129,129,120,0
10603,127,125,129,140,126,129,129,122,0
10612,129,128,126,124,128,126,126,130,0
10608,127,127,128,122,128,128,127,130,0
10615,129,128,126,123,129,126,126,124,0
10621,127,128,128,128,128,125,126,121,0
10624,127,128,126,122,128,123,127,130,0
10627,128,127,128,122,128,130,125,125,0
10634,129,127,129,128,128,127,127,127,0
10640,128,125,129,136,127,126,131,119,0
10644,126,126,127,125,128,126,127,133,0
10647,129,129,127,123,128,127,128,129,0
10650,129,128,127,123,127,126,132,123,0
10654,128,127,128,124,127,131,127,120,0
10657,126,126,128,137,129,128,128,129,0
10660,128,127,127,127,127,130,128,133,0
10663,128,128,128,128,127,125,127,129,0
10667,128,128,128,125,127,126,130,117,0
10670,126,125,129,139,125,129,131,121,0
10673,128,124,129,138,126,132,127,132,0
10677,128,128,126,121,128,131,127,135,0
10680,126,129,126,122,128,126,126,132,0
10683,125,129,128,125,128,129,126,128,0
10686,127,128,128,123,128,130,127,125,0
10690,128,127,128,127,128,130,127,129,0
10693,128,127,128,126,127,130,127,124,0
10696,126,128,128,127,128,125,127,125,0
10700,128,129,128,127,127,128,127,128,0
10703,129,128,126,127,127,129,127,129,0
10706,128,127,129,134,127,125,126,124,0
10710,127,126,130,139,125,129,131,125,0
10713,127,123,129,137,126,126,127,131,0
10717,129,128,125,123,128,130,127,134,0
10720,128,127,128,125,128,130,128,133,0
10723,125,129,128,122,128,130,128,127,0
10726,127,128,127,122,127,131,129,133,0
10729,129,128,128,124,127,127,126,129,0
10733,129,127,128,129,127,130,127,125,0
10736,127,127,126,129,127,130,128,129,0
10741,127,127,128,127,127,128,128,127,0
10745,128,128,127,127,128,128,127,125,0
10749,128,128,127,135,127,128,128,130,0
10755,125,128,130,140,126,128,131,124,0
10759,127,121,130,137,128,131,128,133,0
10765,129,129,125,121,128,129,126,131,0
10768,129,128,128,128,128,128,126,131,0
10770,127,128,126,129,128,130,127,128,0
10773,127,126,129,131,128,127,127,127,0
10776,127,127,129,129,128,130,127,127,0
10779,128,128,128,126,128,129,127,129,0
10783,127,127,126,124,128,128,127,131,0
10788,127,129,126,124,128,127,126,119,0
10791,128,127,127,129,128,126,128,133,0
10795,129,128,129,129,127,123,129,121,0
10799,127,127,126,129,127,124,129,122,0
10802,127,127,126,126,127,123,128,124,0
10806,128,128,126,126,127,130,128,132,0
10809,128,127,127,128,128,127,128,128,0
10812,125,124,129,140,127,129,130,122,0
10816,127,123,129,135,126,128,126,132,0
10822,128,127,126,120,127,130,127,135,0
10827,129,129,125,122,128,125,126,129,0
10831,127,128,125,120,128,127,126,128,0
10834,127,127,128,121,127,130,127,129,0
10837,128,128,128,122,127,127,126,130,0
10841,129,128,128,127,127,130,127,126,0
10844,127,128,127,124,128,125,126,121,0
10848,124,125,130,139,126,127,130,122,0
10851,129,130,128,126,128,127,127,130,0
10854,128,128,128,131,128,127,126,132,0
10857,128,128,126,126,127,131,131,119,0
10860,126,125,130,135,128,127,126,133,0
10867,129,127,127,123,128,129,127,130,0
10870,129,127,126,124,128,128,127,125,0
10874,128,127,128,125,127,125,128,129,0
10877,126,128,127,133,127,127,127,127,0
10880,129,129,127,123,128,127,127,127,0
10883,129,128,126,127,127,125,126,128,0
10886,128,128,128,139,127,126,129,120,0
10890,126,125,128,137,126,129,130,123,0
10893,128,127,126,122,128,128,126,133,0
10897,128,129,126,122,128,132,128,128,0
10900,128,129,127,122,128,128,127,133,0
10903,126,129,126,125,128,125,126,130,0
10906,127,129,128,127,128,126,128,131,0
10910,129,127,128,124,127,127,128,133,0
10914,128,128,129,134,128,130,127,117,0
10917,126,125,129,139,127,129,132,124,0
10921,127,125,129,133,128,129,127,131,0
10924,128,128,128,124,128,129,126,134,0
10927,128,130,128,123,128,131,126,132,0
10931,127,130,126,127,129,125,129,118,0
10934,128,128,126,121,127,126,128,133,0
10938,129,127,128,128,127,126,126,126,0
10943,128,129,127,126,128,127,127,126,0
10946,127,128,128,137,129,125,127,125,0
10949,127,128,128,122,128,128,127,129,0
10952,130,127,128,130,128,129,125,129,0
10956,128,128,129,127,128,124,127,129,0
10959,127,128,128,127,128,126,128,125,0
10962,128,128,126,128,127,124,128,130,0
10964,129,128,128,127,127,128,129,131,0
10968,128,127,127,128,128,125,131,126,0
10972,127,121,129,137,126,128,132,122,0
10976,126,124,129,136,128,131,126,135,0
10980,129,130,127,118,128,128,125,134,0
10984,128,128,128,122,128,128,126,133,0
10987,128,128,125,123,129,131,125,127,0
10990,127,128,125,120,128,128,127,131,0
10993,129,130,127,129,127,127,126,128,0
10997,128,127,126,124,128,129,127,124,0
11006,127,128,129,130,127,127,130,122,0
11010,127,125,129,140,128,131,128,132,0
11017,128,129,126,124,128,128,128,128,0
11023,128,129,128,124,128,124,127,132,0
11026,125,129,129,130,128,124,130,122,0
11029,126,126,126,127,128,125,129,129,0
11033,128,129,128,128,127,126,127,130,0
11037,128,127,127,131,129,124,126,127,0
11040,126,127,129,136,127,125,127,128,0
11043,127,128,128,125,128,132,129,131,0
11046,129,128,128,125,127,128,130,130,0
11049,129,129,128,126,128,125,126,129,0
11052,128,126,129,139,126,128,129,119,0
11055,127,124,128,138,126,127,128,133,0
11058,129,130,127,120,128,128,127,135,0
11061,128,128,128,122,128,131,127,132,0
11063,127,128,126,120,127,131,127,132,0
11067,126,128,128,126,127,131,128,119,0
11069,129,128,126,126,128,123,127,132,0
11072,129,130,127,133,127,128,127,134,0
11078,127,127,129,129,128,129,127,125,0
11075,128,129,128,124,127,128,125,123,0
11081,128,127,129,128,128,129,128,127,0
11085,128,129,128,126,128,130,130,122,0
11091,127,122,129,135,126,129,130,122,0
11096,127,123,129,134,127,132,127,125,0
11101,127,130,125,121,128,129,126,133,0
11104,127,128,127,125,128,128,126,133,0
11108,128,130,128,122,128,126,125,126,0
11111,127,128,126,123,128,128,125,123,0
11114,127,128,126,125,127,129,127,130,0
11119,129,127,126,127,128,129,128,131,0
11131,128,130,128,136,128,126,128,117,0
11136,127,127,126,128,128,125,126,126,0
11139,128,128,127,124,128,124,128,131,0
11142,129,128,128,124,127,126,126,130,0
11148,127,127,129,129,127,128,127,118,0
11151,125,125,129,138,129,125,127,126,0
11155,128,128,127,123,127,129,129,129,0
11158,129,129,127,131,127,128,128,129,0
11162,127,127,126,125,127,127,129,118,0
11165,126,127,128,127,128,125,131,118,0
11168,127,125,128,138,126,128,127,134,0
11172,129,129,128,121,128,132,128,130,0
11175,127,127,126,124,128,124,126,133,0
11178,128,130,126,122,128,127,126,129,0
11181,125,128,126,126,128,128,126,128,0
11185,128,127,127,132,128,129,127,127,0
11189,126,126,129,137,127,127,132,126,0
11192,127,121,129,139,126,126,132,122,0
11195,127,127,128,121,128,128,128,134,0
11198,129,127,127,124,128,128,127,134,0
11201,126,127,128,124,128,125,125,130,0
11206,128,130,128,127,129,127,126,127,0
11209,127,127,127,124,127,128,127,128,0
11213,128,128,127,129,127,128,128,124,0
11221,128,128,128,125,128,129,127,128,0
11224,128,129,128,130,127,127,127,130,0
11228,128,129,129,127,128,126,126,127,0
11232,128,128,126,128,128,127,127,128,0
11235,129,127,126,128,128,127,126,124,0
11238,126,127,126,127,128,125,126,129,0
11241,128,126,129,139,126,127,130,123,0
11244,129,128,126,127,128,129,126,129,0
11247,128,128,126,134,127,129,127,133,0
11250,127,128,128,131,127,125,126,131,0
11253,127,127,128,138,127,128,128,132,0
11256,129,129,127,123,128,129,128,134,0
11259,128,128,129,134,127,125,127,130,0
11263,128,128,129,126,128,126,126,127,0
11266,127,125,129,136,125,129,131,124,0
11268,129,125,128,124,128,128,129,129,0
11271,128,128,128,121,127,132,126,126,0
11274,126,129,128,122,128,126,126,131,0
11280,125,128,126,122,128,127,126,132,0
11283,128,127,126,124,128,127,127,130,0
11286,128,128,128,128,128,126,128,132,0
11290,127,128,126,128,128,131,126,121,0
11294,126,128,126,125,127,128,128,129,0
11298,128,128,127,123,128,128,128,128,0
11302,128,129,127,127,128,124,128,121,0
11305,127,124,129,137,125,127,131,125,0
11309,127,122,128,137,126,129,128,130,0
11311,127,129,126,125,128,126,125,131,0
11314,129,127,128,125,128,127,126,133,0
11320,129,128,125,121,129,130,126,133,0
11325,127,128,126,126,127,130,127,130,0
11328,129,129,128,129,128,130,128,129,0
11331,128,129,127,131,127,130,128,132,0
11335,129,127,128,129,128,125,125,131,0
11338,127,127,129,124,128,127,128,125,0
11341,128,128,128,122,127,130,127,130,0
11345,129,129,126,128,127,126,126,129,0
11348,125,126,129,130,128,127,128,116,0
11350,127,126,129,139,126,127,131,122,0
11353,127,126,125,118,128,130,128,133,0
11356,129,128,128,122,128,127,127,134,0
11358,126,130,128,128,128,126,126,130,0
11361,127,128,126,124,127,125,128,125,0
11364,128,127,126,124,127,128,128,131,0
11368,129,130,127,124,129,126,127,132,0
11371,128,129,128,131,128,125,126,128,0
11374,126,125,129,137,127,127,130,123,0
11379,127,128,126,125,129,128,126,130,0
11382,129,129,127,126,128,129,128,132,0
11386,128,128,128,125,128,126,128,128,0
11390,127,128,128,128,129,128,127,119,0
11393,127,129,127,126,128,124,129,129,0
11398,129,127,126,126,127,127,128,125,0
11401,128,127,128,137,128,129,129,121,0
11404,127,126,130,140,126,128,130,122,0
11407,128,127,126,123,128,128,127,131,0
11410,128,129,126,124,128,128,128,133,0
11413,128,128,126,128,127,125,126,130,0
11416,127,129,128,133,128,128,128,121,0
11419,126,126,128,131,127,130,128,134,0
11425,129,127,126,126,127,124,128,130,0
11432,129,129,128,125,127,125,125,128,0
11436,127,127,128,137,126,130,131,127,0
11439,127,122,129,138,125,127,129,122,0
11443,127,131,128,122,128,131,128,133,0
11446,128,128,126,123,128,128,127,132,0
11449,125,126,128,127,129,127,126,124,0
11452,127,127,129,133,127,126,128,126,0
11456,129,130,128,128,128,126,127,128,0
11460,128,127,128,130,127,129,127,131,0
11463,127,128,125,124,128,127,126,130,0
11466,125,126,126,125,127,132,127,124,0
11468,128,128,128,122,127,128,126,127,0
11472,128,129,128,130,127,125,127,118,0
11474,127,124,130,141,127,123,131,120,0
11477,127,125,128,134,128,128,127,131,0
11480,129,127,126,125,127,132,128,132,0
11483,128,128,127,123,128,127,127,125,0
11486,128,127,128,136,128,127,127,130,0
11488,127,127,128,123,128,128,126,129,0
11491,128,129,126,120,127,130,127,130,0
11494,129,128,128,123,128,125,127,131,0
11497,127,129,128,126,127,126,130,118,0
11500,125,124,130,139,126,127,133,118,0
11503,127,129,127,128,128,130,128,131,0
11506,128,129,128,124,128,128,127,130,0
11510,128,128,126,121,129,131,126,133,0
11512,126,127,128,125,128,125,126,132,0
11516,129,129,128,126,127,128,125,128,0
11519,128,129,128,127,128,130,126,133,0
11522,127,127,126,128,129,125,126,130,0
11526,125,128,127,123,128,127,129,129,0
11532,128,128,127,130,128,125,128,130,0
11535,129,128,128,130,128,124,126,126,0
11538,125,128,127,130,128,126,127,125,0
11540,126,128,128,136,127,127,132,123,0
11543,127,122,129,137,126,128,130,122,0
11546,128,129,127,120,128,130,127,132,0
11552,126,127,128,122,127,127,126,128,0
11549,127,128,129,135,128,127,128,120,0
11555,127,126,126,123,128,128,128,134,0
11560,129,128,128,122,127,130,129,133,0
11563,128,127,126,123,128,125,127,132,0
11567,127,126,129,135,127,128,128,116,0
11570,127,127,128,127,128,131,128,131,0
11574,129,130,126,124,128,127,128,117,0
11577,128,128,129,138,127,128,128,131,0
11581,127,128,127,121,128,127,127,132,0
11584,126,128,129,133,128,127,128,132,0
11588,130,130,126,126,127,127,126,129,0
11591,127,127,126,127,127,129,128,120,0
11594,126,125,129,137,126,127,131,121,0
11597,127,124,129,138,128,128,126,129,0
11600,129,127,128,119,127,132,128,134,0
11603,128,128,125,123,128,128,128,123,0
11610,127,128,127,121,128,129,125,125,0
11613,127,128,128,125,127,128,125,127,0
11617,129,129,127,122,128,127,126,127,0
11623,128,127,126,126,128,131,127,117,0
11626,127,129,126,123,128,130,127,131,0
11630,128,129,127,127,127,124,128,125,0
11634,128,129,127,131,127,126,130,126,0
11640,128,128,129,139,126,130,130,120,0
11645,127,125,129,136,127,126,130,121,0
11648,127,124,128,133,126,127,128,135,0
11652,127,130,125,120,127,131,128,135,0
11655,129,130,126,120,128,131,126,132,0
11658,127,128,126,122,129,128,127,132,0
11661,125,129,128,128,129,127,127,130,0
11665,129,127,126,124,127,128,128,131,0
11668,129,128,126,128,128,128,127,124,0
11671,126,125,130,140,127,125,130,118,0
11675,126,125,129,139,128,131,127,129,0
11678,128,129,128,123,129,126,126,129,0
11681,128,130,127,121,128,126,126,132,0
11684,127,127,129,124,128,125,129,119,0
11687,126,125,129,131,128,130,128,130,0
11690,129,128,126,124,128,128,128,133,0
11693,128,128,126,123,128,128,126,127,0
11696,126,127,128,128,127,124,129,122,0
11700,126,124,129,139,127,130,128,132,0
11703,128,128,128,122,127,125,127,127,0
11707,128,128,129,127,128,127,126,125,0
11709,127,128,128,123,129,124,126,127,0
11717,125,126,128,123,128,131,128,128,0
11720,128,129,127,127,128,129,128,127,0
11723,128,129,126,124,128,128,126,129,0
11731,128,129,129,136,127,130,127,125,0
11735,127,128,128,134,128,129,129,126,0
11739,128,128,128,124,127,128,128,133,0
11742,129,129,128,126,127,126,128,132,0
11746,127,123,129,139,125,128,132,126,0
11752,127,122,129,137,126,127,130,121,0
11756,128,129,127,121,128,129,127,134,0
11759,129,128,128,122,128,128,127,132,0
11763,129,128,127,123,129,130,128,119,0
11766,128,128,128,124,129,128,126,131,0
11769,126,127,128,126,128,122,126,129,0
11772,128,128,127,132,127,125,128,131,0
11774,128,128,126,138,127,130,129,128,0
11778,126,128,128,133,128,130,129,121,0
11781,127,128,127,125,128,127,129,131,0
11785,129,129,128,124,127,124,129,131,0
11788,127,128,128,139,127,126,130,124,0
11791,126,125,129,140,126,125,127,133,0
11794,127,128,126,122,128,128,128,131,0
11797,129,128,128,123,128,124,125,133,0
11801,128,129,128,123,128,128,127,122,0
11804,127,128,128,126,128,124,126,124,0
11808,125,129,126,125,127,129,125,130,0
11811,128,128,126,120,128,130,125,129,0
11814,128,129,128,126,128,130,126,129,0
11818,127,129,128,132,128,129,126,122,0
11820,127,127,128,124,127,129,127,126,0
11823,128,129,128,127,127,124,129,130,0
11827,128,125,129,135,127,125,132,123,0
11830,127,122,128,138,126,127,132,120,0
11833,126,127,127,122,128,130,127,130,0
11835,129,128,125,123,127,128,128,135,0
11838,128,128,127,135,129,129,127,133,0
11841,126,129,125,126,128,130,128,124,0
11846,125,129,128,121,128,129,126,125,0
11851,129,127,128,129,128,130,127,131,0
11857,128,128,126,124,128,128,127,122,0
11860,125,129,128,124,128,131,128,128,0
11863,127,128,127,126,128,128,128,132,0
11866,127,127,129,128,128,125,127,130,0
11870,128,128,127,130,127,124,128,130,0
11873,127,126,130,138,125,126,131,123,0
11876,127,123,129,136,126,129,126,134,0
11880,127,131,127,122,128,128,126,127,0
11883,129,130,126,120,128,128,124,129,0
11887,127,130,129,121,129,126,126,131,0
11892,128,127,128,123,128,128,127,131,0
11895,129,129,127,126,127,126,126,131,0
11900,126,127,126,121,128,128,126,125,0
11903,127,128,126,125,127,124,130,119,0
11906,126,124,128,133,128,128,126,128,0
11910,128,128,126,121,127,129,128,134,0
11912,128,128,126,126,128,124,126,127,0
11916,127,127,129,137,129,124,126,127,0
11918,127,127,129,126,128,126,128,131,0
11923,129,129,128,127,127,124,127,131,0
11928,128,127,126,125,128,125,126,130,0
11933,128,129,128,132,128,130,127,129,0
11937,126,127,129,138,127,126,130,122,0
11940,128,125,129,137,128,129,126,132,0
11944,129,127,126,124,128,129,125,133,0
11947,128,129,128,127,129,125,127,120,0
11950,125,126,129,133,128,128,127,130,0
11956,128,129,126,126,128,128,129,129,0
11959,128,128,127,124,127,126,131,121,0
11964,127,125,129,138,126,125,129,120,0
11969,127,125,128,135,126,129,126,130,0
11976,128,129,125,121,128,127,126,134,0
11979,129,127,128,120,128,125,126,134,0
11982,128,129,128,120,127,129,126,131,0
11986,127,126,128,139,128,130,127,131,0
11989,127,128,126,124,128,127,126,121,0
11992,129,127,127,122,128,128,127,131,0
11995,128,129,128,134,128,130,128,127,0
11999,127,129,128,132,128,126,127,125,0
12002,127,127,126,124,128,131,128,126,0
12005,129,128,128,127,127,127,129,131,0
12008,128,127,129,141,127,127,131,122,0
12011,127,125,130,135,127,128,131,122,0
12014,128,128,127,123,128,128,127,131,0
12017,128,128,127,124,128,129,128,126,0
12020,128,127,127,125,128,128,125,132,0
12023,127,128,126,129,127,127,125,129,0
12028,127,128,126,124,128,131,128,132,0
12032,129,129,128,123,128,126,126,129,0
12036,128,128,128,131,127,130,130,119,0
12038,127,125,129,136,127,125,131,117,0
12042,127,125,129,130,128,130,126,134,0
12045,129,129,128,121,128,129,126,134,0
12048,128,129,126,124,128,127,126,130,0
12050,127,127,126,127,128,129,131,121,0
12053,127,125,128,126,127,130,128,127,0
12057,129,128,126,124,128,131,127,134,0
12061,129,129,128,123,128,125,126,123,0
12065,127,127,126,128,128,127,127,129,0
12068,127,128,127,127,127,131,128,127,0
12072,126,126,128,128,128,127,127,128,0
12079,128,129,128,127,127,128,127,121,0
12087,127,128,128,136,126,127,130,120,0
12090,127,125,128,140,127,128,128,132,0
12093,129,127,126,124,128,129,128,131,0
12096,128,129,127,122,128,128,127,132,0
12099,128,129,126,137,127,125,130,118,0
12101,126,122,128,135,127,127,126,132,0
12104,129,129,125,122,128,129,127,133,0
12108,129,129,128,121,128,129,126,129,0
12112,127,128,126,124,127,130,128,127,0
12115,126,128,128,121,128,131,129,125,0
12119,128,128,128,130,128,126,129,131,0
12122,128,129,128,131,127,126,128,126,0
12125,127,126,128,130,128,128,126,120,0
12129,124,128,129,137,127,128,130,122,0
12132,128,128,128,122,127,128,126,134,0
12135,128,130,129,125,128,127,126,120,0
12138,125,126,126,125,128,127,125,127,0
12141,127,126,128,134,128,129,128,129,0
12144,128,129,128,122,127,129,127,133,0
12147,129,128,128,125,127,125,126,127,0
12150,127,129,129,138,125,127,133,121,0
12153,126,123,130,139,126,126,131,133,0
12159,127,128,128,127,128,127,127,127,0
12162,128,128,128,125,128,128,127,127,0
12167,128,127,126,127,128,129,128,127,0
12170,127,128,126,126,128,130,128,130,0
12172,128,129,126,121,128,127,126,130,0
12175,129,128,128,120,127,131,127,133,0
12178,128,129,128,122,128,128,126,131,0
12181,128,128,128,123,128,128,128,120,0
12186,127,128,126,127,128,129,127,128,0
12190,129,129,128,127,128,129,128,128,0
12194,127,128,128,137,126,126,130,120,0
12198,127,125,130,137,127,128,132,121,0
12202,127,127,127,123,128,129,127,130,0
12204,129,127,125,120,128,132,126,128,0
12207,127,129,128,131,127,130,126,129,0
12210,127,127,128,126,127,127,128,130,0
12213,128,128,129,128,127,126,126,128,0
12217,128,128,126,126,128,127,128,132,0
12220,128,126,129,133,128,127,127,129,0
12223,127,127,127,126,128,125,126,129,0
12226,127,128,128,125,127,127,128,131,0
12229,128,128,126,125,127,128,128,128,0
12232,128,127,127,139,127,125,133,126,0
12235,127,123,129,140,126,127,131,121,0
12238,126,128,126,121,128,129,127,132,0
12242,128,128,126,123,127,131,126,134,0
12244,129,129,128,123,128,127,125,124,0
12247,126,127,127,127,128,125,127,130,0
12250,128,127,126,122,127,131,128,126,0
12252,129,128,128,125,128,127,126,127,0
12255,126,129,127,129,128,126,127,130,0
12258,126,130,127,127,128,127,127,120,0
12261,127,127,126,124,128,130,128,130,0
12264,128,128,128,128,128,126,126,119,0
12267,128,128,128,128,128,128,129,122,0
12270,127,126,129,138,126,128,132,125,0
12273,126,124,129,136,128,131,127,130,0
12278,128,128,125,119,128,130,127,133,0
12281,129,128,128,121,127,128,126,129,0
12283,127,129,127,122,128,131,127,128,0
12290,127,127,128,123,128,131,128,127,0
12293,129,130,126,128,128,125,129,132,0
12296,129,129,128,124,128,126,127,132,0
12299,127,129,126,132,128,126,129,130,0
12302,127,126,128,129,127,127,128,123,0
12305,128,129,128,126,127,130,128,132,0
12309,128,130,129,140,127,125,128,119,0
12316,127,125,129,137,127,125,129,122,0
12319,127,125,128,126,129,128,126,134,0
12322,129,129,127,125,128,129,126,135,0
12325,129,128,127,120,128,131,126,131,0
12328,127,128,128,128,130,123,127,124,0
12338,127,127,126,128,128,127,127,122,0
12341,128,128,126,126,127,128,128,131,0
12346,128,128,128,127,128,127,125,131,0
12348,127,128,128,137,127,126,126,127,0
12351,126,128,126,132,128,128,128,127,0
12354,128,129,128,133,129,126,126,129,0
12360,129,128,128,123,128,125,127,130,0
12363,128,128,129,138,126,130,132,124,0
12366,126,123,130,137,126,125,131,121,0
12369,128,128,125,122,128,129,129,129,0
12371,128,128,126,123,129,126,126,133,0
12374,128,129,128,127,128,128,126,128,0
12378,126,128,128,125,128,128,127,127,0
12381,127,127,128,127,127,130,128,126,0
12384,128,129,128,127,128,128,127,130,0
12387,128,128,129,130,127,128,128,117,0
12390,125,125,129,133,128,129,127,128,0
12392,128,130,126,124,127,127,128,130,0
12395,129,129,128,128,128,127,125,122,0
12398,126,126,128,129,128,126,127,132,0
12403,127,128,127,124,127,125,126,127,0
12409,127,128,127,122,128,128,127,130,0
12412,129,128,127,125,127,129,128,124,0
12415,128,127,126,127,128,124,126,132,0
12419,127,122,129,136,126,128,131,125,0
12422,127,125,128,124,128,128,126,130,0
12425,129,128,125,121,127,132,127,135,0
12428,128,128,126,128,128,128,125,130,0
12431,126,128,129,134,127,131,128,123,0
12435,126,128,125,122,128,131,128,127,0
12442,129,128,127,132,128,129,128,128,0
12445,128,129,127,123,128,128,127,129,0
12448,127,128,128,134,128,124,126,127,0
12452,127,129,128,128,128,128,128,128,0
12455,129,129,128,131,127,127,126,124,0
12458,128,126,129,140,126,128,130,120,0
12462,127,125,130,137,126,125,130,120,0
12465,127,128,125,119,128,130,126,131,0
12469,129,128,128,118,127,130,126,136,0
12472,129,129,126,121,128,132,126,134,0
12475,127,128,128,128,128,131,127,121,0
12478,127,130,129,134,128,129,127,128,0
12481,128,127,126,123,128,131,128,132,0
12486,128,127,126,126,127,128,126,125,0
12489,127,128,128,129,127,127,126,123,0
12492,127,128,128,127,127,127,128,128,0
12495,128,129,128,131,128,128,128,130,0
12500,129,128,129,139,127,127,129,122,0
12503,126,123,128,138,125,128,131,123,0
12507,127,124,129,130,128,130,128,131,0
12510,129,131,126,126,128,128,126,127,0
12515,129,127,127,126,128,125,126,134,0
12521,126,127,126,127,128,126,127,133,0
12527,125,128,128,129,128,125,128,133,0
12530,128,127,126,127,127,128,129,133,0
12533,129,127,126,127,128,123,129,131,0
12537,128,129,129,127,127,125,125,127,0
12540,127,127,128,121,128,128,127,132,0
12543,128,129,128,130,127,124,127,131,0
12546,129,128,126,125,128,123,125,125,0
12549,126,124,129,137,125,127,131,123,0
12553,126,123,129,136,128,127,126,131,0
12556,127,130,128,121,128,128,126,132,0
12560,129,129,126,122,127,132,127,133,0
12562,128,128,128,137,128,127,125,132,0
12565,127,128,126,123,128,127,127,128,0
12569,128,128,128,125,128,127,129,132,0
12572,128,127,129,130,127,130,129,125,0
12575,127,128,126,128,128,130,127,119,0
12578,127,128,129,131,127,126,130,117,0
12582,128,127,127,128,128,126,128,128,0
12585,128,126,127,131,128,127,128,126,0
12588,127,128,128,133,127,127,130,122,0
12591,126,125,129,141,127,130,131,121,0
12598,128,129,126,123,128,127,125,126,0
12601,128,128,126,123,128,129,127,130,0
12604,128,128,128,123,128,129,127,128,0
12607,127,124,129,139,125,128,131,125,0
12610,126,124,128,124,128,129,126,131,0
12613,129,130,128,123,128,128,126,130,0
12618,128,128,126,123,128,128,126,131,0
12623,126,128,127,126,128,126,125,122,0
12626,127,129,127,123,127,124,128,129,0
12630,129,128,128,126,128,124,127,131,0
12639,128,128,128,122,128,127,126,131,0
12643,127,130,128,135,129,127,126,121,0
