Start Recording
16,121,129,127,129,124,129,129,129,0
20,131,128,127,128,128,127,126,127,0
26,129,127,128,128,127,128,127,128,0
30,129,126,128,128,127,126,125,127,0
34,128,128,127,127,128,127,128,129,0
38,129,128,127,126,129,128,128,129,0
41,128,127,127,128,129,128,129,128,0
44,126,125,128,127,128,127,127,127,0
57,127,126,127,129,126,128,128,128,0
61,127,128,127,129,126,126,127,127,0
64,121,129,125,128,127,128,128,127,0
68,123,129,126,128,128,128,127,126,0
71,122,129,125,127,127,125,129,129,0
75,132,129,128,127,128,127,127,127,0
79,131,127,126,128,129,127,127,127,0
82,130,126,126,127,129,128,129,127,0
85,130,127,126,128,128,128,129,129,0
89,129,129,129,128,125,126,127,128,0
92,130,128,129,128,127,126,126,127,0
95,128,127,128,128,128,126,127,127,0
98,126,127,128,127,129,126,127,128,0
101,125,129,129,128,125,127,127,128,0
105,123,129,126,128,128,128,128,125,0
109,123,128,126,127,127,129,128,126,0
112,123,127,128,126,127,127,130,127,0
115,131,129,127,126,128,129,129,128,0
118,131,127,127,126,128,127,127,128,0
122,131,127,129,128,129,127,129,128,0
125,128,126,126,128,128,127,127,128,0
136,130,129,129,128,127,126,127,127,0
139,128,129,131,128,125,127,126,127,0
143,127,126,128,128,128,126,126,127,0
146,124,125,128,129,126,128,127,127,0
152,121,130,128,128,127,126,127,128,0
156,132,130,129,126,130,127,128,127,0
159,130,128,129,127,125,128,126,126,0
162,127,126,128,128,126,127,127,127,0
165,128,129,129,128,128,127,126,128,0
168,127,128,127,127,125,126,127,127,0
170,130,124,130,128,127,128,129,128,0
173,129,124,126,128,128,127,126,126,0
176,123,130,127,127,126,126,129,129,0
179,131,129,127,127,127,127,127,127,0
182,130,127,128,128,127,126,127,126,0
185,130,126,127,126,130,127,128,128,0
189,131,128,127,127,127,128,128,128,0
193,130,128,127,128,127,127,127,127,0
196,128,129,128,128,128,129,127,126,0
207,122,128,126,128,127,128,127,127,0
211,131,128,128,127,128,126,127,128,0
214,130,128,127,127,126,128,127,127,0
218,130,127,127,127,129,128,127,128,0
222,129,124,129,128,127,126,126,128,0
225,131,128,129,128,129,127,128,128,0
228,131,129,126,128,126,128,128,129,0
231,128,128,127,129,124,129,127,127,0
242,124,126,128,129,128,128,126,126,0
246,122,129,127,129,126,126,129,129,0
249,132,128,127,127,129,126,126,128,0
252,129,128,129,127,130,128,129,128,0
255,124,126,126,128,129,127,127,127,0
258,122,128,127,128,126,127,128,128,0
261,131,129,127,126,129,128,129,128,0
265,131,126,128,128,126,127,127,127,0
279,128,126,130,128,128,126,126,128,0
283,128,126,127,128,126,127,127,128,0
286,129,130,128,129,126,127,127,128,0
289,128,127,127,128,128,128,128,126,0
292,121,128,126,127,128,128,127,126,0
296,122,128,126,128,126,128,128,128,0
299,131,129,130,128,129,128,129,128,0
301,130,129,128,128,126,127,126,127,0
305,131,128,129,126,129,126,126,127,0
310,129,128,128,128,127,127,125,128,0
313,129,129,128,128,125,127,126,127,0
317,128,128,130,129,129,129,127,128,0
320,125,127,128,127,127,129,126,126,0
326,121,129,127,127,125,126,126,128,0
329,130,130,129,128,128,127,127,127,0
332,129,128,128,129,124,128,129,128,0
336,128,125,126,126,128,128,128,128,0
339,128,124,128,129,125,127,126,127,0
342,130,130,129,128,129,126,126,127,0
344,129,128,127,129,129,126,126,128,0
349,130,125,126,128,129,129,127,125,0
364,122,127,126,129,128,128,127,128,0
368,130,130,129,126,129,127,128,129,0
371,131,127,126,128,129,128,128,128,0
376,129,126,127,126,128,128,127,127,0
378,127,126,126,126,129,128,128,128,0
382,129,129,128,128,127,127,126,128,0
387,128,129,129,128,126,127,127,126,0
390,122,127,126,129,127,128,127,127,0
406,121,126,127,126,128,128,128,127,0
410,129,129,128,126,129,128,128,129,0
414,131,127,127,127,127,127,128,126,0
419,128,125,127,126,129,128,127,127,0
422,128,125,128,128,125,128,128,128,0
426,128,129,128,129,125,127,127,127,0
429,131,129,129,128,128,125,127,128,0
432,129,126,127,128,126,128,128,127,0
436,128,127,127,128,127,128,127,127,0
439,122,130,127,129,126,126,127,128,0
442,130,130,128,128,129,127,128,128,0
446,127,127,127,128,128,126,126,127,0
450,128,128,130,126,126,126,127,127,0
453,126,129,130,128,129,127,127,128,0
456,130,128,126,127,128,128,129,128,0
458,128,126,127,128,127,129,126,125,0
461,121,128,126,128,126,128,127,127,0
465,123,127,127,125,127,128,129,129,0
468,132,130,128,128,128,126,126,127,0
472,131,128,129,128,128,128,128,127,0
474,130,125,126,128,128,128,128,128,0
484,129,127,127,128,126,127,127,128,0
488,128,129,128,126,128,128,128,128,0
491,130,126,128,126,125,126,126,127,0
494,129,127,128,128,126,128,127,127,0
498,122,129,127,128,127,128,127,128,0
502,123,130,127,128,127,127,129,128,0
506,132,127,126,125,128,130,129,125,0
509,132,125,127,128,127,127,126,127,0
512,129,126,130,126,128,126,127,128,0
515,129,129,127,127,129,128,127,128,0
519,128,127,127,128,129,125,127,127,0
530,129,125,128,128,128,125,127,127,0
533,127,128,129,128,126,126,126,127,0
536,128,130,128,128,126,128,128,128,0
539,126,129,127,128,127,128,127,125,0
543,122,128,126,127,128,128,127,125,0
546,123,126,130,126,129,127,127,128,0
549,130,130,131,125,129,128,128,128,0
553,131,127,127,127,127,129,130,125,0
556,129,127,127,126,127,127,127,127,0
559,129,126,126,127,127,128,128,129,0
562,128,130,129,128,128,126,126,128,0
570,127,128,127,127,128,127,128,128,0
573,125,127,126,128,128,127,127,127,0
576,120,129,126,128,128,127,127,129,0
579,131,128,126,126,128,128,129,129,0
581,130,127,127,128,128,126,127,127,0
585,122,127,126,127,127,129,128,127,0
588,123,126,128,127,127,127,127,128,0
592,129,129,129,126,129,127,129,128,0
605,130,127,127,126,128,128,127,128,0
610,130,127,128,128,128,127,127,128,0
613,129,126,127,126,127,127,129,128,0
618,128,129,128,128,126,126,126,127,0
621,128,128,129,128,128,127,127,126,0
624,122,128,126,128,127,128,127,127,0
628,122,127,126,127,127,127,126,128,0
631,131,129,128,125,128,127,130,129,0
634,129,127,127,128,130,127,128,127,0
639,128,126,127,128,126,129,129,128,0
642,123,125,127,127,129,127,128,128,0
645,127,128,126,128,127,128,128,129,0
650,130,127,128,128,126,127,128,128,0
657,131,127,128,129,125,127,126,127,0
659,125,126,125,128,128,129,127,127,0
662,123,128,130,127,129,128,129,129,0
665,131,128,128,127,127,126,127,128,0
670,130,125,130,128,128,127,126,128,0
673,126,126,128,126,128,128,129,128,0
685,129,127,126,128,128,128,129,129,0
688,129,129,127,128,127,128,128,128,0
691,127,128,129,129,127,128,127,127,0
694,122,128,126,128,127,129,127,126,0
698,124,125,129,128,129,128,129,128,0
701,132,129,126,125,129,130,131,127,0
704,131,126,127,127,126,129,129,128,0
707,129,127,128,129,129,128,128,127,0
711,130,127,127,126,129,127,129,129,0
714,131,128,127,127,126,127,130,128,0
720,131,126,126,128,126,129,128,126,0
726,122,127,126,128,127,128,127,126,0
729,122,128,128,128,131,128,129,128,0
732,131,128,126,127,126,128,128,128,0
735,131,128,129,127,127,126,126,127,0
738,128,126,128,127,129,130,129,128,0
741,128,126,126,127,128,128,129,129,0
744,129,128,127,128,126,127,128,128,0
758,128,127,129,128,125,127,128,128,0
762,129,126,126,128,127,128,127,126,0
766,122,129,126,128,127,127,128,129,0
769,131,129,127,127,127,128,128,126,0
772,130,127,127,128,127,127,127,127,0
777,129,126,128,128,126,128,129,126,0
781,127,126,127,128,126,127,126,128,0
786,128,130,129,128,128,127,127,127,0
789,128,127,126,128,128,126,128,126,0
792,122,128,125,129,127,128,127,125,0
796,121,127,126,129,125,130,129,128,0
799,131,129,128,126,128,127,127,127,0
802,131,129,129,127,129,127,130,128,0
804,130,125,126,126,128,130,128,127,0
807,128,127,127,126,129,127,129,129,0
810,130,128,127,128,128,128,129,129,0
813,131,126,126,128,127,128,128,127,0
816,121,129,126,128,126,128,128,126,0
819,122,127,127,129,125,127,126,127,0
830,130,130,128,128,128,126,126,127,0
833,129,127,127,126,129,126,128,127,0
837,131,125,126,128,128,129,127,127,0
840,128,125,127,128,126,127,129,128,0
843,129,128,128,128,128,127,127,127,0
847,126,129,128,128,129,126,126,127,0
850,129,127,128,129,127,128,127,126,0
854,121,128,126,128,127,128,127,127,0
865,123,129,129,125,128,129,130,129,0
869,131,128,128,128,128,127,126,127,0
873,131,126,129,127,129,128,129,127,0
876,125,126,126,127,129,128,130,129,0
880,129,128,127,128,129,128,129,129,0
883,129,127,127,126,128,128,129,128,0
888,129,126,127,128,126,128,127,126,0
892,120,128,126,128,126,128,127,127,0
901,123,127,127,127,128,128,126,128,0
906,130,128,126,126,129,129,129,128,0
909,129,126,127,128,126,127,128,127,0
914,128,126,128,127,126,127,128,127,0
917,130,127,126,128,128,128,128,129,0
923,129,128,127,128,125,127,127,127,0
926,128,128,127,128,127,128,127,126,0
929,121,128,126,128,128,128,128,126,0
936,129,128,127,125,128,127,128,129,0
940,131,128,126,127,128,128,131,129,0
943,130,128,127,127,126,127,128,126,0
946,126,125,127,128,127,127,129,128,0
949,131,127,126,128,128,128,129,129,0
952,131,129,129,128,125,127,127,127,0
956,130,126,127,129,127,128,127,126,0
959,121,127,125,127,127,128,126,127,0
962,124,127,128,126,127,128,127,128,0
965,131,129,128,127,128,128,127,128,0
973,130,128,129,128,129,128,129,128,0
977,129,125,126,126,128,128,128,128,0
979,129,127,128,128,127,127,126,128,0
983,128,130,129,126,128,128,129,129,0
986,122,130,127,127,127,128,128,126,0
989,122,128,126,130,127,127,128,127,0
993,125,129,129,128,128,128,128,128,0
996,131,130,128,128,128,127,127,128,0
999,130,127,129,128,127,128,128,128,0
1010,131,126,126,127,128,128,130,129,0
1013,130,127,127,127,127,127,126,128,0
1016,129,128,128,129,127,126,127,128,0
1023,130,126,128,128,127,128,127,126,0
1028,121,128,126,129,127,128,127,126,0
1031,123,127,127,128,129,130,129,129,0
1035,131,128,127,128,127,127,126,127,0
1039,128,128,130,129,123,126,126,127,0
1042,130,127,128,126,127,127,126,127,0
1045,130,125,126,127,128,128,128,129,0
1049,128,130,128,127,128,127,128,129,0
1051,129,126,126,128,127,129,127,126,0
1058,123,127,126,129,127,128,127,125,0
1061,122,129,127,128,125,129,129,128,0
1065,132,129,129,127,129,128,127,127,0
1068,131,128,129,128,129,127,127,128,0
1071,130,126,127,128,128,127,129,128,0
1074,129,125,127,128,126,127,127,128,0
1081,128,129,129,128,129,128,128,128,0
1085,128,128,128,126,128,128,128,129,0
1088,129,126,128,128,128,128,127,127,0
1091,121,127,126,128,127,128,127,127,0
1094,125,130,130,126,129,128,129,128,0
1098,132,127,126,128,129,130,129,128,0
1101,128,125,126,127,127,128,127,128,0
1104,128,125,126,128,128,128,129,128,0
1117,129,128,127,128,125,127,126,128,0
1122,128,129,128,128,128,127,126,128,0
1125,131,127,127,127,129,128,127,127,0
1130,127,125,127,128,127,128,127,126,0
1134,123,128,128,128,127,126,127,128,0
1138,131,128,128,127,126,128,129,127,0
1141,128,127,127,126,127,127,130,127,0
1146,129,127,127,128,127,127,126,128,0
1154,127,129,129,128,128,127,126,128,0
1158,129,128,127,127,124,128,129,128,0
1161,127,127,128,128,128,126,128,127,0
1165,129,124,128,129,128,128,127,127,0
1168,123,129,126,128,128,129,128,127,0
1171,124,130,127,128,128,129,129,126,0
1174,124,128,127,126,128,128,127,127,0
1178,132,127,126,127,126,127,127,126,0
1181,132,129,128,125,127,127,126,128,0
1185,131,129,128,126,129,126,127,127,0
1189,129,128,129,128,129,127,127,128,0
1193,127,126,126,128,129,128,128,128,0
1196,129,127,127,128,126,128,127,128,0
1200,129,129,129,128,125,126,126,127,0
1203,124,127,129,129,124,127,127,127,0
1206,128,126,128,129,128,127,128,127,0
1209,120,128,127,128,127,128,126,128,0
1212,124,128,129,127,129,127,127,128,0
1215,130,127,129,129,129,128,129,126,0
1228,129,128,129,127,124,126,127,127,0
1231,128,126,128,129,128,128,129,129,0
1234,129,129,127,127,127,128,129,129,0
1237,128,126,127,127,128,127,129,127,0
1241,121,127,126,129,127,128,128,126,0
1247,122,129,126,127,127,127,129,129,0
1250,132,129,127,126,129,128,130,129,0
1254,131,127,127,127,127,125,127,127,0
1263,131,124,128,128,127,127,128,125,0
1268,123,127,129,128,129,128,128,129,0
1275,128,129,127,126,129,128,127,128,0
1279,130,126,127,126,130,127,127,126,0
1282,121,129,127,129,127,128,127,126,0
1285,122,127,128,129,124,129,130,129,0
1289,131,128,128,126,129,127,128,128,0
1292,129,128,129,128,129,127,129,128,0
1303,129,126,127,126,127,127,126,126,0
1306,123,127,129,128,129,130,128,128,0
1309,131,128,127,127,125,127,126,127,0
1313,130,128,128,128,125,127,129,128,0
1317,123,127,128,128,127,127,127,125,0
1320,120,129,127,128,127,128,127,127,0
1323,125,129,130,126,129,127,127,129,0
1327,130,128,127,128,129,127,128,128,0
1330,127,127,127,128,128,128,128,127,0
1334,127,127,127,129,130,128,128,128,0
1337,130,128,127,126,128,127,128,129,0
1341,127,128,129,129,128,125,127,127,0
1344,130,127,125,129,127,129,127,126,0
1351,121,129,126,128,127,127,127,128,0
1354,132,128,127,125,131,128,128,129,0
1357,132,128,127,127,127,128,128,127,0
1360,130,126,128,127,127,126,127,127,0
1363,129,125,128,128,126,127,126,127,0
1366,127,128,127,126,128,128,129,129,0
1369,128,129,126,128,127,128,127,126,0
1373,122,129,126,128,126,128,128,126,0
1378,122,127,126,128,129,128,131,127,0
1381,130,128,127,125,129,127,128,130,0
1385,131,128,126,128,128,129,129,128,0
1390,129,126,126,127,129,128,129,128,0
1393,128,126,128,128,126,128,129,128,0
1395,129,128,127,128,126,127,126,128,0
1398,129,129,129,128,124,127,126,127,0
1402,122,128,126,129,127,128,126,126,0
1405,122,128,125,129,127,128,127,126,0
1409,123,127,127,128,129,127,128,128,0
1412,130,129,127,128,129,130,129,129,0
1423,130,124,129,128,129,127,129,128,0
1427,129,125,126,128,127,128,127,127,0
1430,128,128,128,128,129,128,128,129,0
1433,130,128,127,127,128,127,127,129,0
1437,124,127,129,129,126,126,127,127,0
1441,127,126,128,127,130,126,128,128,0
1445,126,128,128,129,129,128,129,129,0
1448,130,129,127,128,126,128,129,129,0
1452,128,128,126,128,127,129,128,125,0
1456,122,128,125,128,127,128,127,127,0
1459,122,128,127,127,127,126,127,128,0
1462,132,129,127,125,128,127,127,128,0
1465,133,128,127,128,128,127,127,126,0
1469,130,127,127,128,129,127,127,128,0
1472,129,127,127,126,129,128,129,129,0
1476,130,128,127,127,127,127,127,129,0
1479,129,127,129,128,126,128,127,125,0
1482,122,128,127,128,127,128,127,126,0
1486,127,127,129,128,129,128,127,128,0
1489,129,128,128,127,127,126,126,127,0
1494,130,128,128,128,129,126,127,128,0
1501,127,126,129,126,129,128,129,128,0
1507,128,124,128,127,128,128,129,129,0
1511,128,127,128,126,129,128,129,128,0
1519,129,126,127,127,128,128,128,127,0
1523,120,127,126,128,126,128,128,127,0
1528,121,128,127,128,127,128,127,128,0
1531,131,130,129,126,128,127,127,128,0
1535,131,127,126,127,129,128,127,128,0
1538,131,126,126,127,126,130,127,128,0
1542,126,125,126,127,128,128,130,130,0
1545,129,128,127,128,127,127,129,129,0
1555,129,127,127,128,126,127,127,128,0
1559,121,127,127,128,126,128,128,127,0
1562,122,128,125,129,126,126,129,128,0
1566,131,129,128,127,127,128,127,127,0
1569,130,129,129,128,129,128,128,128,0
1572,127,126,126,126,129,128,129,128,0
1576,126,126,129,127,129,128,126,127,0
1579,129,129,127,128,129,127,129,129,0
1590,130,127,127,129,126,128,129,127,0
1594,123,128,126,129,127,128,127,125,0
1597,122,126,126,126,128,128,129,128,0
1601,130,129,127,127,129,127,126,129,0
1604,131,129,127,127,129,128,128,128,0
1607,130,126,126,125,128,127,128,127,0
1611,128,126,127,127,128,126,128,128,0
1614,130,127,128,127,128,127,129,128,0
1618,131,127,127,127,126,128,127,128,0
1623,130,127,127,128,125,128,127,127,0
1629,125,126,127,129,127,126,126,127,0
1634,128,129,129,128,127,127,126,128,0
1638,131,129,130,130,127,129,128,126,0
1641,122,128,127,128,127,128,128,127,0
1644,123,128,126,128,128,127,126,126,0
1647,132,128,130,127,128,128,127,128,0
1651,131,129,127,127,128,127,130,128,0
1654,131,128,128,128,129,126,126,127,0
1657,130,126,130,127,129,128,128,128,0
1686,129,127,126,127,127,128,129,129,0
1692,130,128,127,127,127,127,130,128,0
1698,128,126,129,128,128,127,126,128,0
1703,122,126,128,128,127,128,126,127,0
1709,122,128,128,127,128,128,128,129,0
1714,131,128,127,127,128,127,127,128,0
1718,130,126,127,126,128,128,129,128,0
1722,129,127,127,128,126,128,127,128,0
1726,127,127,127,127,127,127,127,128,0
1729,130,129,127,127,128,127,127,128,0
1732,128,127,127,128,128,127,126,127,0
1736,129,125,127,127,129,128,127,127,0
1739,120,130,126,128,126,128,126,126,0
1742,123,130,128,127,126,128,129,128,0
1745,132,128,129,127,128,128,127,127,0
1749,130,126,127,127,128,130,129,128,0
1752,129,125,127,127,128,128,127,129,0
1755,128,129,129,128,126,127,127,128,0
1759,130,127,127,127,127,127,128,128,0
1763,125,127,126,128,128,127,127,127,0
1768,129,126,126,127,129,126,129,129,0
1771,127,128,128,126,128,128,128,127,0
1775,129,128,129,129,127,130,128,124,0
1777,120,130,125,129,128,128,128,126,0
1780,123,127,128,126,128,127,127,128,0
1783,129,128,127,127,130,127,128,129,0
1786,131,127,127,126,129,127,129,127,0
1789,129,127,128,128,129,128,129,128,0
1792,125,127,127,128,127,127,126,128,0
1796,129,129,127,126,129,126,128,129,0
1799,124,130,130,127,128,126,127,127,0
1802,127,127,130,129,127,129,128,126,0
1805,121,128,125,128,126,126,127,128,0
1808,131,130,131,126,129,127,127,128,0
1812,131,127,127,126,129,130,129,128,0
1815,128,126,126,128,129,128,129,128,0
1818,129,124,125,127,129,128,129,128,0
1822,130,128,128,128,126,127,127,128,0
1827,128,128,129,128,127,128,127,128,0
1831,121,128,126,129,127,127,128,126,0
1835,122,127,126,127,128,127,126,128,0
1838,131,129,128,127,129,128,126,128,0
1841,130,128,127,126,127,127,130,128,0
1845,129,127,128,128,125,126,127,128,0
1848,128,126,128,128,127,126,129,128,0
1851,129,128,127,128,124,127,127,128,0
1856,128,128,128,126,127,127,126,128,0
1859,127,127,128,127,125,127,127,128,0
1862,122,128,125,128,128,129,128,126,0
1866,122,129,128,128,127,127,126,127,0
1871,130,128,129,128,129,128,129,128,0
1876,127,127,127,129,129,128,129,128,0
1879,129,125,127,128,127,128,127,128,0
1882,130,128,127,126,129,128,128,129,0
1885,128,127,126,129,126,127,127,126,0
1889,122,128,126,127,128,130,128,126,0
1891,124,127,127,128,126,127,128,128,0
1894,131,128,127,128,128,128,127,128,0
1899,130,128,128,128,129,130,128,128,0
1902,131,126,126,127,127,127,127,128,0
1905,130,127,128,128,126,127,126,127,0
1911,128,128,127,127,128,128,128,129,0
1915,129,128,127,127,125,127,126,128,0
1918,128,128,128,128,127,128,127,126,0
1921,122,128,126,128,127,128,127,127,0
1924,128,128,127,127,128,128,126,128,0
1928,130,129,130,127,129,130,129,129,0
1931,130,127,126,126,127,128,128,128,0
1935,129,125,127,129,130,128,128,128,0
1947,127,127,126,126,129,128,129,129,0
1951,127,127,127,127,128,127,130,127,0
1954,130,128,130,128,124,127,128,128,0
1958,123,129,125,128,127,128,127,126,0
1962,122,129,126,129,125,128,127,127,0
1966,131,130,130,126,129,127,127,128,0
1969,130,127,127,126,128,128,129,128,0
1972,130,126,128,128,126,128,129,127,0
1982,128,125,127,128,127,127,128,129,0
1988,128,129,129,128,127,126,127,128,0
1992,128,127,130,128,126,126,127,127,0
1997,124,128,126,128,127,129,128,127,0
2003,123,129,126,128,126,127,127,128,0
2007,131,128,129,126,129,128,129,128,0
2011,129,127,127,128,127,128,126,127,0
2014,131,126,128,129,128,126,125,127,0
2017,129,127,127,126,129,128,128,128,0
2020,128,128,127,128,129,128,129,129,0
2024,128,127,128,127,128,126,126,128,0
2027,126,127,125,129,127,128,128,126,0
2030,121,129,126,127,128,128,127,128,0
2033,131,128,127,127,128,127,127,128,0
2037,131,128,128,127,127,126,126,127,0
2040,129,127,129,128,125,127,128,128,0
2044,129,126,129,126,130,128,127,127,0
2047,126,129,130,128,126,127,127,128,0
2050,129,128,127,127,129,125,126,127,0
2056,121,128,126,128,127,129,127,126,0
2060,121,128,127,129,127,128,128,127,0
2063,123,126,128,125,128,128,127,128,0
2066,131,128,128,126,129,128,128,128,0
2069,131,126,126,128,127,126,126,127,0
2073,129,126,128,128,127,126,126,127,0
2077,128,128,128,126,129,127,127,129,0
2081,130,128,127,126,128,127,125,127,0
2091,128,125,126,129,126,127,127,127,0
2095,128,125,127,128,127,128,127,127,0
2098,122,129,128,126,129,127,127,128,0
2102,130,128,127,126,129,128,129,129,0
2106,128,126,129,127,129,126,127,127,0
2111,128,126,129,126,129,126,127,128,0
2116,129,128,127,126,129,128,129,129,0
2120,129,128,128,128,128,128,129,128,0
2125,125,127,127,129,127,129,128,126,0
2128,121,128,126,128,127,129,126,127,0
2134,130,128,127,127,127,128,128,128,0
2139,130,129,128,128,127,126,125,127,0
2144,130,128,130,129,127,126,128,127,0
2148,128,125,129,128,129,128,128,128,0
2151,127,127,127,128,128,128,129,129,0
2155,130,129,128,128,128,128,128,128,0
2158,129,126,127,129,127,128,127,127,0
2162,122,128,126,127,128,129,127,126,0
2165,122,127,129,127,127,127,127,129,0
2169,132,129,128,127,129,127,126,128,0
2172,129,127,127,129,127,126,125,126,0
2177,130,126,129,128,128,126,128,128,0
2180,130,129,129,127,126,126,125,128,0
2183,130,129,128,126,128,127,128,128,0
2187,127,126,126,128,127,128,128,128,0
2190,130,127,125,128,127,129,128,124,0
2198,119,128,127,129,127,127,128,128,0
2202,131,128,127,128,128,128,128,129,0
2205,130,128,128,128,127,127,126,127,0
2209,131,125,128,126,128,126,127,127,0
2212,127,126,126,128,128,128,130,129,0
2216,130,127,127,127,126,127,126,128,0
2219,129,127,129,129,124,127,126,127,0
2222,128,127,129,129,125,128,127,127,0
2233,126,124,127,129,127,127,127,128,0
2241,124,129,128,128,126,127,127,128,0
2245,129,127,128,128,129,128,128,125,0
2250,121,130,125,128,127,130,128,126,0
2253,122,127,126,127,129,130,129,128,0
2256,130,128,127,125,131,128,129,128,0
2259,131,127,126,127,126,125,126,127,0
2263,129,126,128,128,127,126,129,128,0
2266,128,127,129,128,128,126,126,127,0
2269,128,129,128,127,129,127,128,129,0
2272,129,126,126,128,125,128,129,127,0
2276,128,126,127,129,126,128,127,126,0
2279,121,128,127,128,128,129,127,126,0
2282,123,128,130,126,128,127,126,128,0
2285,130,129,128,126,128,126,126,127,0
2288,128,126,128,126,127,127,128,127,0
2291,125,126,127,126,127,128,130,129,0
2295,129,129,126,128,127,127,128,129,0
2299,129,129,127,128,125,127,129,128,0
2313,128,125,127,129,128,128,127,126,0
2316,122,127,126,129,127,128,127,128,0
2320,130,128,127,125,127,127,128,129,0
2325,131,129,128,127,128,126,126,127,0
2328,130,125,129,126,128,128,127,128,0
2332,126,127,127,128,129,128,129,129,0
2336,129,128,127,128,127,127,128,129,0
2339,128,129,128,126,128,127,128,127,0
2342,122,129,126,128,128,128,127,126,0
2345,122,127,125,128,127,127,126,127,0
2349,132,129,130,127,128,127,126,128,0
2352,131,129,129,127,129,128,129,128,0
2357,131,126,127,128,127,126,126,127,0
2366,128,125,128,127,127,128,129,129,0
2370,127,128,126,127,128,128,129,129,0
2374,130,127,127,126,128,128,129,128,0
2378,128,126,126,129,127,128,127,126,0
2381,121,128,126,127,127,128,127,126,0
2384,123,127,128,127,128,128,130,128,0
2388,131,128,127,127,128,127,126,127,0
2391,129,127,128,128,127,126,127,127,0
2395,126,125,128,129,127,127,126,127,0
2400,129,128,129,128,128,126,126,128,0
2402,129,128,129,128,126,127,126,127,0
2407,129,128,129,129,124,126,128,127,0
2412,121,128,125,128,127,128,127,127,0
2415,123,127,127,129,126,127,128,128,0
2418,131,128,127,126,129,128,129,129,0
2422,130,127,127,127,128,128,128,127,0
2441,130,125,126,126,129,129,127,127,0
2446,125,128,127,126,128,128,127,129,0
2449,129,127,129,128,126,127,126,127,0
2461,127,127,128,128,125,128,127,125,0
2465,122,129,125,128,127,129,128,126,0
2470,122,127,129,126,128,128,128,128,0
2474,131,129,128,127,127,127,126,128,0
2478,131,129,130,128,129,128,129,128,0
2481,129,125,126,128,129,127,129,128,0
2485,128,124,127,126,129,128,129,129,0
2489,129,128,127,127,127,130,126,127,0
2492,124,128,129,126,129,126,126,127,0
2496,128,127,128,129,128,129,128,126,0
2500,122,129,125,129,126,126,126,128,0
2506,131,130,128,126,129,128,127,128,0
2509,130,128,127,126,129,128,128,128,0
2513,128,126,128,128,125,128,130,127,0
2516,121,128,126,128,127,129,128,128,0
2519,128,129,128,126,129,127,127,128,0
2522,130,128,126,126,128,128,128,128,0
2526,130,126,127,129,127,127,127,128,0
2529,127,127,129,127,125,126,126,128,0
2533,131,129,128,128,126,126,125,127,0
2537,128,127,128,128,126,126,126,128,0
2541,125,126,126,127,127,128,127,127,0
2544,127,125,126,129,129,128,126,128,0
2547,130,129,129,128,128,126,126,127,0
2549,127,128,128,128,128,128,127,128,0
2553,130,127,126,128,128,129,128,123,0
2556,119,129,125,129,127,127,126,128,0
2560,130,129,129,128,129,128,128,128,0
2563,131,128,128,127,126,127,127,128,0
2566,131,126,127,127,127,127,128,128,0
2570,127,125,129,126,129,128,128,129,0
2574,128,128,127,126,129,127,129,129,0
2578,131,127,127,128,128,128,128,128,0
2581,127,126,128,127,128,128,128,127,0
2584,121,129,125,128,128,130,128,127,0
2587,123,129,128,126,131,128,128,128,0
2590,132,129,128,128,128,127,125,127,0
2594,130,128,128,129,126,127,127,126,0
2598,123,126,126,128,126,126,127,127,0
2601,130,129,127,128,129,126,127,128,0
2607,130,128,127,128,130,127,129,128,0
2613,130,127,127,128,127,130,126,127,0
2616,127,126,129,128,129,128,129,129,0
2619,129,126,127,128,128,127,128,129,0
2622,128,128,126,127,126,128,128,127,0
2625,121,129,126,129,127,128,127,127,0
2628,123,127,128,127,128,128,127,128,0
2631,130,127,126,128,129,128,127,128,0
2634,130,128,127,126,131,128,129,128,0
2637,126,127,127,128,128,128,129,128,0
2641,123,124,129,129,128,128,128,128,0
2645,125,126,126,127,127,127,128,129,0
2650,129,128,128,128,126,127,127,127,0
2653,129,128,130,127,129,128,126,127,0
2656,129,127,127,126,130,127,128,126,0
2659,121,129,126,128,127,127,128,127,0
2662,123,129,128,125,129,129,131,128,0
2666,132,127,127,127,126,130,128,128,0
2670,130,126,128,127,127,127,127,129,0
2681,124,127,128,127,128,126,126,128,0
2685,131,129,129,128,126,127,128,128,0
2688,128,127,127,127,129,127,128,126,0
2693,123,128,126,128,128,128,128,126,0
2696,122,127,128,127,127,128,128,129,0
2701,130,128,127,126,128,126,126,127,0
2704,129,128,129,128,128,127,125,127,0
2708,130,125,127,128,127,127,127,127,0
2711,127,127,128,128,128,127,127,128,0
2714,128,128,127,126,129,126,128,128,0
2770,126,128,128,128,125,126,126,127,0
2781,128,127,127,126,129,126,126,127,0
2801,125,125,127,127,128,128,128,129,0
2808,128,128,128,128,126,128,128,126,0
2815,123,130,127,128,127,129,127,125,0
2820,123,128,127,128,127,129,128,125,0
2835,122,128,126,126,128,130,128,129,0
2842,132,129,129,127,127,128,128,128,0
2903,131,128,128,126,128,128,128,126,0
2914,129,126,128,127,126,127,126,127,0
2923,129,126,128,128,126,127,127,128,0
2932,130,129,129,128,127,126,126,128,0
2938,129,129,130,129,127,126,126,127,0
2942,129,124,128,128,126,126,127,126,0
2969,120,128,126,128,126,128,127,127,0
2974,122,128,127,127,127,128,130,129,0
2979,131,127,127,127,127,128,127,128,0
2984,130,126,126,128,129,127,128,128,0
2989,129,125,127,127,126,128,129,128,0
3038,129,128,127,128,128,127,129,128,0
3047,128,127,128,127,128,128,129,127,0
3055,121,129,125,129,128,129,127,126,0
3060,122,128,125,128,127,127,126,127,0
3065,131,129,129,126,127,127,127,129,0
3109,132,129,129,125,128,126,126,127,0
3118,129,126,127,128,129,130,129,128,0
3134,128,124,126,127,127,127,128,129,0
3140,129,128,129,128,126,126,126,129,0
3145,128,129,129,128,127,125,125,127,0
3150,128,126,128,129,128,129,127,126,0
3154,121,128,125,128,127,127,127,128,0
3158,130,128,127,128,127,127,127,128,0
3162,131,128,128,126,128,127,126,127,0
3165,129,126,130,127,130,127,127,127,0
3169,127,125,126,128,126,127,126,127,0
3176,130,129,130,129,128,127,128,128,0
3179,128,125,128,129,127,128,127,126,0
3172,128,127,130,128,128,127,126,128,0
3187,123,129,128,126,129,128,128,128,0
3183,123,127,126,127,128,128,128,126,0
3191,130,130,129,126,129,127,128,128,0
3194,130,127,126,127,128,127,127,127,0
3198,130,126,126,128,129,126,126,127,0
3202,129,128,131,129,129,127,127,128,0
3206,128,130,128,127,129,127,128,128,0
3209,128,128,128,129,126,129,128,126,0
3213,122,127,126,128,127,128,127,127,0
3222,123,128,130,126,129,127,127,128,0
3225,130,128,128,128,128,128,129,128,0
3229,130,127,128,128,125,127,126,127,0
3233,128,126,126,127,128,128,128,127,0
3237,129,126,128,128,127,126,127,128,0
3240,128,130,129,128,125,126,126,128,0
3244,128,128,130,129,126,127,127,127,0
3247,128,126,128,129,129,127,129,125,0
3251,120,128,127,128,127,129,127,127,0
3254,123,129,129,128,126,126,127,128,0
3260,132,129,129,128,128,127,125,127,0
3265,131,126,127,127,128,127,127,127,0
3269,129,127,129,128,130,126,126,128,0
3276,128,129,130,126,129,127,127,129,0
3281,129,127,127,128,125,127,129,126,0
3285,122,129,126,128,127,128,127,127,0
3288,123,127,127,128,130,130,128,129,0
3292,131,128,126,127,128,128,128,128,0
3296,132,127,127,126,129,128,131,128,0
3301,130,125,127,127,127,126,127,127,0
3305,121,127,125,129,127,128,127,128,0
3309,123,129,129,128,128,126,127,128,0
3313,130,129,130,127,130,127,127,128,0
3317,125,127,127,127,129,127,126,128,0
3323,126,127,126,127,128,128,129,128,0
3327,130,128,127,127,126,127,128,128,0
3330,129,127,127,128,128,127,129,128,0
3334,125,126,127,129,128,127,128,126,0
3374,121,127,126,129,127,129,128,126,0
3380,123,127,127,126,129,128,128,128,0
3386,131,127,127,128,130,127,128,127,0
3391,129,127,128,128,129,126,126,127,0
3396,129,126,129,128,126,127,126,128,0
3400,129,128,127,128,126,127,126,128,0
3403,130,129,128,126,129,128,129,128,0
3407,128,127,127,129,129,126,127,127,0
3410,126,128,125,128,127,129,126,126,0
3413,122,129,127,128,127,128,126,128,0
3417,132,129,128,128,129,127,128,127,0
3421,130,127,127,126,128,128,129,127,0
3426,130,126,127,127,127,127,126,128,0
3431,128,128,130,128,128,126,126,127,0
3434,128,129,130,129,127,127,127,127,0
3439,128,127,127,128,128,127,128,125,0
3442,120,128,126,128,127,128,127,126,0
3445,123,129,128,128,128,128,130,129,0
3449,132,129,127,127,128,126,127,128,0
3452,129,128,129,127,129,128,129,128,0
3456,122,125,127,127,126,128,128,128,0
3459,129,127,127,127,126,127,129,129,0
3462,131,128,127,128,126,126,125,127,0
3465,129,128,128,128,125,127,127,126,0
3469,124,125,126,128,128,127,127,125,0
3472,121,130,125,128,127,128,127,127,0
3476,122,130,131,126,129,128,128,128,0
3479,131,127,128,128,127,128,127,127,0
3482,130,126,129,128,126,127,126,126,0
3485,123,126,127,127,127,127,129,129,0
3489,130,128,127,127,126,126,130,128,0
3491,130,127,128,128,128,126,127,128,0
3494,129,126,128,129,126,128,128,127,0
3498,121,128,126,128,127,128,126,127,0
3509,127,130,130,126,129,128,128,129,0
3512,129,129,128,127,126,128,126,127,0
3515,131,127,128,127,128,128,128,128,0
3519,129,126,126,127,127,128,129,129,0
3523,130,127,127,127,127,127,126,127,0
3526,129,129,130,128,124,128,129,127,0
3530,123,128,126,128,128,128,128,126,0
3535,122,129,125,128,127,127,129,128,0
3539,130,129,127,127,129,127,129,128,0
3542,131,126,126,128,130,128,128,128,0
3545,131,127,128,128,128,126,126,128,0
3548,129,126,127,127,127,126,126,128,0
3552,129,129,130,127,128,126,127,128,0
3555,128,129,128,128,127,126,127,129,0
3558,124,127,127,127,126,126,126,126,0
3561,121,127,125,128,127,129,128,127,0
3577,122,130,127,127,126,127,129,129,0
3581,132,127,127,125,128,128,131,126,0
3584,129,128,128,128,127,127,127,127,0
3588,127,126,128,128,127,127,126,127,0
3591,129,130,129,128,127,126,126,128,0
3594,129,129,129,127,126,126,126,127,0
3598,129,125,127,128,124,127,126,126,0
3601,121,129,126,129,128,128,127,127,0
3604,122,129,129,127,128,128,128,128,0
3607,131,127,127,128,128,128,128,127,0
3611,131,127,130,128,130,127,126,127,0
3648,128,126,126,127,126,129,129,128,0
3657,129,129,128,127,127,127,126,128,0
3663,128,129,127,128,126,128,127,127,0
3669,121,128,127,128,127,127,127,128,0
3674,123,126,126,128,127,127,128,128,0
3678,131,128,128,125,129,128,130,128,0
3682,131,128,128,128,128,127,127,127,0
3685,130,126,130,128,128,127,127,127,0
3691,128,126,127,129,129,127,127,128,0
3696,129,128,127,126,128,128,129,129,0
3699,129,128,127,128,126,127,126,127,0
3702,128,128,128,129,128,126,126,127,0
3705,128,125,129,129,128,128,128,128,0
3709,129,126,126,128,127,128,129,129,0
3712,127,128,128,126,125,128,126,127,0
3715,128,128,126,129,127,129,127,126,0
3719,122,128,126,128,128,128,127,127,0
3722,124,127,127,127,126,129,127,127,0
3726,132,130,131,127,129,126,127,127,0
3733,130,127,129,128,124,126,129,128,0
3737,129,125,126,127,127,126,127,127,0
3741,128,127,127,128,126,126,125,128,0
3744,128,129,128,126,129,128,128,127,0
3747,130,128,128,128,128,128,129,126,0
3751,122,128,125,129,126,128,127,127,0
3754,122,128,126,128,129,126,127,128,0
3757,131,129,126,125,128,130,131,129,0
3760,131,127,126,126,128,128,126,126,0
3764,129,125,127,128,131,128,129,128,0
3767,128,125,126,126,127,128,129,129,0
3770,123,127,127,127,126,128,128,128,0
3773,129,127,128,127,126,128,129,126,0
3777,122,128,126,128,128,129,128,126,0
3780,123,128,126,129,127,127,127,128,0
3783,132,130,131,128,129,127,125,127,0
3786,131,128,129,128,126,127,127,126,0
3790,130,127,128,127,127,127,127,126,0
3793,128,127,127,128,127,126,125,129,0
3798,129,130,129,127,129,125,127,128,0
3804,130,129,129,129,125,126,127,128,0
3810,122,128,126,127,127,128,128,127,0
3813,121,127,127,129,127,126,127,128,0
3816,130,129,128,125,129,127,127,128,0
3819,131,127,126,128,129,130,129,128,0
3822,130,125,127,128,127,126,129,128,0
3826,128,124,127,126,129,128,129,129,0
3829,130,128,126,127,129,128,129,129,0
3832,129,128,128,128,126,127,128,128,0
3836,129,125,128,128,127,129,127,127,0
3839,121,128,126,129,128,128,127,128,0
3843,131,129,129,128,127,126,127,128,0
3846,131,129,130,126,129,128,127,125,0
3849,124,127,129,128,129,125,127,127,0
3852,128,127,127,128,128,127,128,128,0
3855,129,129,128,126,129,128,129,129,0
3858,125,128,130,128,127,127,127,127,0
3862,122,128,126,128,127,128,127,125,0
3868,121,127,126,129,127,127,126,128,0
3870,132,128,128,127,128,127,128,127,0
3874,130,128,129,128,129,128,129,128,0
3877,130,126,128,128,127,126,126,127,0
3880,129,125,127,129,128,127,129,128,0
3883,129,128,127,127,126,127,128,129,0
3887,129,127,127,128,126,128,129,128,0
3890,129,125,126,130,127,129,128,126,0
3894,121,127,126,129,128,128,127,128,0
3898,129,128,127,127,127,128,128,129,0
3903,131,127,126,127,131,128,128,128,0
3908,130,126,127,127,129,128,129,128,0
3912,130,124,127,128,127,126,126,127,0
3915,129,129,128,128,126,126,125,128,0
3918,129,129,129,128,127,127,127,127,0
3921,126,127,129,129,128,129,128,126,0
3924,122,128,126,127,128,128,127,128,0
3928,129,127,126,125,129,128,128,128,0
3931,131,129,127,128,127,127,127,127,0
3935,131,127,129,126,129,127,126,127,0
3939,126,127,130,128,126,127,126,127,0
3942,128,128,128,126,129,128,128,129,0
3945,130,129,128,126,129,128,128,129,0
3949,125,128,126,128,127,128,128,125,0
3953,122,129,127,128,127,128,127,128,0
3956,123,127,128,127,128,128,128,129,0
3960,132,128,128,127,126,128,128,129,0
3963,130,127,128,128,128,126,126,127,0
3966,131,127,129,128,128,125,126,128,0
3969,126,128,127,125,129,128,129,129,0
3973,128,128,127,127,128,128,129,129,0
3976,128,126,127,129,128,125,126,128,0
3979,127,127,125,128,127,128,128,126,0
3983,122,127,130,128,129,128,128,128,0
3987,131,128,127,127,125,128,127,128,0
3990,130,128,130,127,128,126,127,128,0
3993,131,126,128,128,127,126,127,127,0
3996,128,127,127,127,127,127,129,129,0
3999,129,129,128,128,126,126,126,127,0
4004,128,127,128,126,125,129,128,124,0
4008,120,129,125,128,128,130,127,127,0
4015,124,126,128,126,129,126,126,128,0
4019,131,130,129,127,127,127,127,128,0
4022,131,129,129,128,128,126,126,127,0
4025,128,126,129,128,129,126,128,126,0
4030,121,127,126,128,127,128,127,129,0
4035,130,130,127,126,128,128,131,129,0
4040,130,128,127,127,127,127,126,127,0
4044,128,126,128,128,125,127,127,128,0
4047,129,126,128,128,126,127,126,128,0
4051,129,130,130,128,128,127,128,128,0
4054,127,127,128,126,128,128,129,128,0
4058,127,126,127,130,127,131,127,124,0
4061,120,128,125,128,126,126,126,128,0
4065,131,129,127,127,127,127,128,129,0
4068,131,127,126,126,128,129,129,129,0
4071,130,125,126,128,129,128,128,128,0
4074,126,125,126,127,126,128,127,128,0
4078,129,129,129,128,127,126,126,128,0
4082,129,128,127,127,127,127,126,128,0
4084,128,126,126,129,127,129,127,126,0
4088,122,128,126,129,127,128,127,127,0
4091,130,128,127,126,128,128,129,129,0
4094,131,127,127,126,127,127,131,129,0
4097,130,126,128,127,127,127,126,127,0
4102,129,125,128,129,127,126,126,127,0
4105,128,128,128,128,127,126,127,128,0
4109,128,129,129,128,128,127,126,128,0
4114,130,127,128,128,124,128,127,127,0
4118,128,125,127,128,128,128,129,127,0
4124,128,128,128,128,125,126,126,128,0
4129,128,129,129,128,128,127,126,127,0
4132,126,126,127,128,127,129,127,126,0
4135,121,129,126,128,126,129,127,126,0
4139,123,129,127,128,129,127,128,129,0
4142,130,130,128,127,127,126,127,127,0
4145,129,127,127,128,128,128,129,128,0
4148,129,125,127,128,129,128,129,128,0
4152,130,127,127,127,126,126,126,128,0
4156,129,130,129,126,129,128,129,127,0
4159,121,129,127,127,128,128,127,126,0
4162,123,128,127,128,128,128,127,126,0
4164,123,126,128,128,129,130,129,129,0
4169,131,129,126,127,129,130,130,129,0
4173,130,126,127,127,128,128,128,127,0
4176,130,127,127,127,129,128,127,127,0
4179,129,127,126,126,127,128,128,129,0
4182,128,129,128,127,126,127,126,128,0
4186,128,128,129,128,128,126,126,127,0
4189,125,127,128,127,129,125,126,127,0
4191,127,127,129,128,126,126,127,128,0
4196,128,128,128,127,128,127,127,128,0
4198,126,128,126,129,128,128,127,126,0
4201,123,128,127,128,127,129,127,126,0
4204,122,127,127,129,128,128,127,127,0
4206,130,129,129,126,129,126,126,127,0
4209,129,128,128,128,128,127,126,127,0
4212,128,125,130,128,127,126,126,126,0
4217,124,128,128,126,129,128,128,129,0
4222,129,128,126,127,127,127,128,128,0
4227,130,125,126,127,129,126,128,128,0
4230,129,125,127,128,127,129,127,126,0
4233,121,128,127,128,127,128,126,128,0
4236,126,129,130,128,129,128,128,128,0
4240,131,127,127,127,128,128,128,128,0
4243,131,126,130,127,127,127,126,127,0
4246,127,127,127,129,126,127,126,127,0
4249,128,130,129,128,127,127,127,128,0
4253,128,128,128,128,126,127,125,127,0
4256,130,127,127,128,127,128,128,126,0
4259,122,127,125,128,126,128,127,126,0
4261,131,128,128,127,127,128,129,129,0
4265,131,128,127,127,128,127,127,127,0
4268,130,126,129,128,132,127,128,127,0
4271,129,125,128,128,129,127,127,128,0
4274,127,128,128,126,129,127,128,129,0
4281,130,128,127,128,127,128,130,127,0
4284,122,129,126,129,127,128,127,126,0
4288,121,128,126,127,130,128,128,127,0
4291,130,129,128,125,128,127,127,129,0
4295,132,129,128,126,129,127,127,128,0
4299,130,127,127,126,128,130,130,128,0
4303,129,127,128,128,127,127,127,127,0
4306,130,128,129,128,126,127,127,128,0
4309,129,128,129,127,125,127,127,127,0
4312,128,126,127,128,127,128,126,125,0
4315,122,128,126,128,127,128,127,128,0
4319,129,129,129,127,128,126,126,128,0
4324,130,129,128,126,129,127,125,127,0
4330,130,127,129,126,128,127,129,128,0
4336,130,125,128,127,131,127,129,128,0
4339,130,128,127,127,126,128,127,128,0
4343,130,128,128,127,127,128,129,128,0
4348,128,126,129,130,127,128,128,127,0
4351,121,127,125,127,128,128,127,126,0
4354,121,128,127,127,129,127,127,128,0
4358,132,128,130,126,128,127,127,128,0
4361,131,127,127,125,128,128,128,128,0
4365,129,126,128,127,127,126,128,128,0
4368,130,126,126,127,128,128,129,129,0
4371,129,129,128,128,127,126,128,128,0
4375,130,124,129,128,128,126,126,126,0
4379,129,127,129,129,128,129,128,126,0
4382,121,128,126,127,127,126,128,129,0
4384,131,129,127,127,127,128,128,128,0
4388,130,128,128,128,126,127,127,128,0
4391,132,126,129,129,128,127,128,128,0
4394,127,126,126,126,129,127,128,129,0
4398,128,128,128,126,129,128,128,129,0
4401,127,126,127,128,129,126,126,127,0
4403,130,127,128,128,128,128,128,128,0
4407,126,127,127,127,129,126,127,128,0
4410,128,129,129,129,127,129,128,127,0
4412,122,129,127,127,127,128,128,126,0
4415,124,129,126,127,128,127,128,127,0
4418,132,128,128,127,128,127,126,127,0
4421,131,128,131,128,128,127,126,128,0
4424,131,129,130,126,129,127,127,127,0
4432,131,126,126,128,126,127,127,128,0
4437,128,127,128,128,128,127,126,128,0
4440,130,129,129,128,127,126,126,128,0
4443,127,128,130,129,125,128,128,128,0
4446,120,128,125,127,127,128,127,126,0
4450,122,127,125,128,127,127,126,128,0
4453,132,129,127,126,128,127,128,128,0
4457,131,129,129,128,131,128,129,128,0
4460,129,125,127,127,128,128,129,128,0
4463,128,126,127,127,129,127,126,128,0
4470,127,129,130,127,127,127,126,128,0
4474,131,127,127,127,129,128,128,127,0
4477,130,127,128,126,128,127,127,127,0
4480,122,127,125,128,127,128,128,126,0
4484,123,129,127,126,129,128,129,129,0
4489,131,127,126,127,128,128,128,128,0
4493,128,127,127,127,127,128,129,128,0
4496,127,124,128,127,127,127,129,129,0
4499,129,128,128,128,128,128,128,129,0
4502,128,128,127,127,126,128,126,128,0
4505,123,129,126,128,128,129,128,126,0
4508,122,128,126,127,128,128,127,126,0
4511,132,128,127,128,127,127,128,128,0
4514,131,128,127,128,127,127,126,127,0
4518,127,128,127,129,129,127,127,128,0
4520,128,125,126,128,129,127,127,128,0
4524,129,128,128,128,129,128,129,129,0
4526,130,128,128,128,126,127,129,128,0
4529,128,127,128,128,125,128,128,127,0
4532,120,129,126,128,127,128,128,126,0
4537,123,128,129,126,127,127,127,128,0
4542,131,130,130,126,129,127,128,128,0
4549,131,126,127,128,125,130,129,128,0
4552,128,125,126,129,129,128,129,129,0
4555,130,127,127,125,129,128,129,129,0
4558,131,128,127,127,127,127,128,128,0
4562,129,128,128,127,127,127,127,127,0
4564,124,126,127,130,127,129,127,127,0
4568,120,129,126,128,127,126,127,129,0
4571,132,128,127,128,129,128,127,129,0
4576,126,127,127,128,129,128,130,128,0
4579,129,124,127,128,129,126,127,126,0
4582,123,128,128,127,126,127,128,129,0
4587,124,129,128,126,128,128,128,128,0
4591,129,128,126,126,129,128,127,127,0
4594,122,128,126,128,127,128,127,126,0
4598,122,129,127,126,127,130,129,128,0
4601,132,129,128,127,127,129,129,129,0
4603,132,127,127,127,125,127,127,128,0
4607,125,126,128,127,129,126,126,127,0
4610,127,128,128,128,126,127,127,128,0
4615,129,129,129,128,127,126,127,127,0
4618,130,128,130,129,125,126,127,127,0
4621,121,128,126,128,128,129,128,126,0
4624,122,129,126,127,128,128,127,129,0
4628,131,129,128,128,128,128,129,128,0
4631,131,127,127,128,128,128,128,128,0
4638,129,126,130,127,128,127,127,128,0
4633,131,125,129,128,129,125,128,126,0
4650,130,126,127,126,128,128,129,128,0
4644,130,128,127,127,128,128,129,129,0
4656,124,127,128,128,126,128,128,127,0
4661,129,124,126,128,128,129,127,127,0
4664,122,129,128,128,128,128,130,129,0
4668,130,128,126,127,127,128,130,127,0
4671,131,128,129,128,129,127,128,127,0
4674,124,128,127,128,129,128,127,129,0
4678,131,129,128,128,127,128,129,128,0
4681,127,128,128,128,129,127,126,127,0
4684,129,128,127,127,129,128,127,127,0
4687,129,125,126,128,126,127,127,128,0
4691,128,128,128,126,126,127,126,128,0
4695,128,128,129,130,127,131,128,124,0
4699,120,129,124,128,128,128,127,126,0
4702,122,128,127,129,128,129,129,129,0
4705,130,128,127,128,129,128,128,128,0
4708,131,128,127,125,128,130,130,127,0
4712,130,125,127,126,128,128,129,127,0
4715,128,125,128,128,129,127,127,128,0
4719,129,129,129,128,129,126,127,129,0
4722,130,127,127,128,126,127,127,128,0
4725,124,126,127,127,128,128,130,126,0
4729,120,129,125,128,127,128,128,127,0
4732,123,128,128,126,128,128,126,128,0
4736,131,129,127,127,127,129,130,129,0
4742,129,126,127,127,127,126,127,127,0
4744,130,126,128,128,128,127,127,128,0
4747,126,128,131,127,129,127,126,128,0
4750,129,129,128,127,128,126,126,128,0
4754,128,127,128,129,127,127,127,127,0
4759,131,124,127,129,127,129,127,127,0
4764,122,129,127,129,127,128,127,128,0
4768,129,128,127,127,129,128,128,128,0
4771,129,126,127,127,128,128,129,128,0
4774,129,124,127,127,128,127,126,128,0
4778,127,128,127,126,128,128,129,129,0
4781,129,128,126,128,127,127,127,127,0
4784,129,128,128,130,126,129,128,126,0
4787,122,129,126,129,127,128,127,127,0
4791,124,124,130,126,130,128,127,128,0
4794,130,130,130,128,131,128,129,128,0
4798,131,128,128,128,128,125,126,127,0
4803,128,126,127,128,129,128,126,127,0
4806,129,127,127,127,129,128,128,129,0
4809,127,129,127,126,128,128,127,129,0
4811,128,128,127,129,126,128,127,125,0
4814,123,127,126,128,127,128,128,127,0
4818,123,127,130,126,129,128,127,128,0
4821,129,129,129,128,130,128,129,129,0
4824,130,127,127,125,128,127,128,127,0
4829,130,125,130,128,127,126,128,128,0
4831,128,126,130,128,127,127,127,128,0
4835,128,129,129,128,126,126,128,128,0
4840,129,127,128,129,127,127,130,126,0
4843,121,129,127,129,127,128,127,126,0
4846,122,128,126,128,130,128,128,129,0
4849,131,129,128,126,128,127,130,127,0
4853,125,129,127,128,128,128,131,128,0
4856,130,126,126,126,128,128,126,127,0
4862,126,127,129,126,129,127,127,128,0
4868,129,128,130,128,129,126,126,127,0
4871,128,128,127,126,129,127,127,126,0
4874,122,129,126,129,127,129,127,126,0
4877,122,128,127,129,125,129,128,128,0
4880,131,129,127,128,131,128,129,129,0
4883,130,128,127,125,128,127,125,127,0
4887,128,126,128,127,125,127,128,128,0
4890,127,126,128,127,126,127,127,128,0
4893,129,128,129,127,127,126,126,128,0
4897,128,129,130,128,128,126,127,128,0
4899,130,127,129,127,126,127,127,125,0
4902,121,127,125,128,127,128,127,127,0
4905,125,130,129,126,129,128,129,129,0
4908,127,128,130,127,129,126,125,127,0
4911,129,128,130,127,127,127,127,128,0
4913,129,126,125,128,127,128,127,127,0
4916,122,130,127,128,127,128,128,128,0
4919,131,128,127,128,128,127,128,128,0
4922,131,127,128,129,128,127,126,127,0
4924,127,127,129,128,126,127,125,127,0
4927,128,129,129,128,129,127,127,127,0
4930,131,128,130,128,126,127,128,128,0
4934,127,126,127,127,125,127,127,127,0
4938,128,124,125,128,128,130,129,127,0
4943,123,129,127,129,127,127,128,128,0
4948,130,127,127,127,128,128,130,128,0
4951,128,125,127,128,127,126,126,127,0
4954,128,126,128,126,128,128,128,128,0
4958,130,127,127,128,126,127,126,128,0
4963,130,129,129,128,125,127,126,128,0
4969,127,127,127,128,125,127,129,128,0
4976,125,126,127,129,125,127,128,128,0
4979,129,127,127,127,129,129,128,129,0
4982,129,127,127,126,129,127,126,127,0
4986,129,129,128,128,128,129,128,126,0
4989,122,129,126,129,127,128,127,127,0
4992,124,128,129,126,129,128,129,129,0
4999,131,128,127,127,128,127,127,128,0
5001,131,127,128,127,128,127,127,125,0
5005,130,125,127,127,126,127,126,127,0
5008,129,128,128,128,129,127,128,128,0
5013,127,129,130,127,129,128,129,127,0
5017,129,128,128,129,124,127,127,128,0
5022,130,127,128,127,128,129,129,127,0
5027,129,128,129,127,128,128,129,129,0
5030,128,128,128,128,127,128,127,126,0
5033,121,129,126,127,126,128,127,126,0
5037,123,128,126,128,128,127,127,126,0
5040,130,126,127,126,128,129,130,129,0
5043,131,129,129,127,127,128,131,129,0
5047,129,127,128,127,126,127,128,127,0
5051,131,126,127,128,125,129,126,127,0
5054,128,127,127,129,129,126,127,128,0
5057,128,129,127,128,127,127,128,128,0
5060,129,128,129,129,127,128,127,126,0
5064,123,129,127,129,127,128,127,125,0
5069,122,129,126,128,126,128,127,129,0
5072,132,128,129,126,128,128,130,128,0
5075,131,129,129,128,128,126,130,128,0
5079,131,126,127,127,127,127,126,125,0
5084,128,126,127,128,127,127,125,127,0
5089,128,130,129,128,126,126,126,128,0
5095,127,128,130,126,126,126,126,128,0
5098,121,127,126,129,127,128,128,127,0
5102,121,128,126,128,128,128,126,128,0
5105,129,127,129,128,127,127,127,128,0
5108,131,128,130,127,128,126,127,127,0
5111,128,127,127,129,129,127,129,128,0
5114,129,126,126,128,126,127,127,128,0
5118,128,128,129,129,125,127,127,128,0
5121,128,129,129,129,128,127,127,128,0
5124,127,126,127,129,127,128,127,125,0
5127,120,128,127,128,127,128,127,127,0
5131,128,128,129,128,129,127,128,129,0
5134,131,128,126,126,129,128,128,128,0
5138,129,126,129,128,129,127,127,127,0
5141,128,126,126,126,128,128,129,129,0
5144,129,128,127,127,128,128,129,129,0
5148,130,128,127,127,126,130,128,127,0
5151,122,128,126,128,126,128,127,125,0
5154,122,128,125,127,127,126,130,129,0
5157,131,127,126,126,129,130,129,128,0
5160,130,130,129,126,129,128,129,128,0
5162,130,126,126,126,128,127,128,127,0
5165,130,125,127,128,126,127,128,128,0
5168,128,128,128,128,126,127,126,128,0
5171,130,129,128,129,128,127,127,128,0
5174,128,127,128,128,128,127,128,126,0
5177,122,128,126,128,127,128,128,127,0
5180,122,128,129,127,128,128,127,129,0
5185,130,129,128,128,128,126,127,127,0
5191,129,126,127,127,128,126,126,126,0
5194,127,126,129,128,126,128,127,128,0
5197,130,128,128,129,126,127,127,128,0
5200,129,129,129,128,129,127,127,127,0
5203,125,128,128,128,128,128,128,127,0
5207,128,126,128,128,125,128,128,128,0
5211,123,129,126,128,127,129,128,127,0
5214,122,131,127,128,127,128,127,127,0
5217,129,127,127,127,128,128,129,127,0
5220,129,126,127,128,129,130,129,128,0
5223,129,127,126,127,127,127,127,128,0
5227,129,129,128,128,125,127,126,127,0
5230,128,128,128,128,127,126,126,127,0
5233,124,125,126,128,127,130,128,125,0
5236,122,129,126,129,127,128,127,129,0
5239,131,128,127,125,128,128,130,128,0
5242,131,127,126,126,126,127,127,125,0
5249,128,126,128,128,126,127,127,127,0
5253,130,128,128,128,128,127,126,127,0
5256,128,129,129,128,127,126,126,127,0
5259,129,128,131,128,125,128,127,127,0
5262,128,127,127,126,128,129,127,127,0
5266,125,127,127,128,128,127,128,128,0
5269,127,129,129,126,129,126,128,128,0
5274,128,128,128,128,129,128,126,128,0
5278,127,125,128,126,128,130,129,125,0
5281,120,130,125,127,127,127,128,127,0
5284,127,129,130,126,129,128,128,128,0
5286,131,127,126,127,129,125,126,127,0
5289,128,127,127,128,127,128,127,126,0
5292,122,128,127,125,126,128,128,129,0
5296,131,128,127,125,130,128,130,129,0
5302,131,128,127,127,126,127,129,127,0
5305,129,125,128,127,129,126,126,128,0
5308,121,125,127,128,127,127,127,129,0
5311,129,128,128,127,126,127,126,127,0
5314,129,128,129,128,127,126,129,128,0
5317,122,129,126,127,128,128,127,126,0
5319,122,128,126,129,128,128,128,128,0
5322,130,129,127,126,128,128,127,128,0
5325,131,129,130,127,128,127,125,127,0
5332,128,125,126,128,128,128,128,128,0
5328,130,127,130,129,129,127,125,127,0
5334,130,130,128,128,127,126,126,128,0
5338,129,128,129,127,128,128,126,128,0
5342,127,127,125,128,127,128,127,125,0
5345,122,128,126,129,127,128,126,128,0
5348,123,128,131,128,128,127,127,128,0
5353,132,129,128,127,127,127,128,126,0
5356,129,128,128,128,127,127,127,127,0
5361,127,125,127,128,125,127,127,128,0
5364,129,127,128,128,125,128,128,129,0
5366,129,129,129,128,125,127,126,128,0
5369,126,126,128,128,126,127,127,126,0
5372,122,127,125,127,129,129,127,126,0
5376,122,129,128,128,128,128,127,128,0
5379,133,128,128,127,128,128,128,128,0
5382,130,126,127,127,125,127,128,127,0
5386,130,127,128,129,128,126,127,127,0
5389,128,128,129,127,129,128,128,128,0
5392,127,128,127,128,125,127,126,127,0
5396,127,128,128,129,126,128,127,127,0
5400,123,127,125,129,128,128,126,128,0
5406,130,127,127,127,128,129,129,129,0
5411,132,128,127,127,128,128,128,129,0
5413,129,127,128,127,125,128,129,128,0
5416,130,126,127,128,127,127,127,128,0
5420,130,126,128,128,128,127,126,128,0
5423,128,129,128,128,127,127,129,128,0
5428,127,127,127,127,127,127,126,127,0
5431,129,125,127,127,129,128,128,127,0
5434,128,127,128,128,125,127,126,128,0
5438,128,130,129,128,125,127,127,126,0
5441,123,129,127,128,128,128,128,126,0
5444,123,128,126,129,129,128,127,126,0
5448,123,127,128,127,128,128,130,128,0
5452,130,129,129,126,128,127,126,128,0
5455,131,129,130,128,129,127,129,127,0
5459,129,126,127,128,129,130,129,128,0
5462,129,125,127,126,131,128,129,129,0
5466,131,128,127,127,125,126,126,128,0
5470,128,128,130,129,127,126,125,127,0
5474,128,127,128,129,129,127,128,125,0
5478,121,129,126,128,126,128,126,128,0
5481,129,129,130,126,129,128,127,129,0
5485,129,129,127,129,129,128,125,127,0
5491,121,128,127,129,127,129,127,127,0
5488,131,128,128,128,126,127,130,126,0
5495,123,129,128,127,128,127,126,127,0
5498,132,128,127,128,127,127,127,127,0
5501,128,127,129,128,128,127,126,127,0
5504,128,126,128,127,127,127,127,128,0
5508,128,129,129,128,126,127,127,128,0
5512,128,129,129,128,130,127,127,127,0
5518,121,128,126,127,127,128,128,127,0
5521,122,128,125,129,127,128,127,128,0
5524,131,129,127,126,128,130,132,128,0
5528,131,128,126,125,128,128,129,127,0
5531,130,126,127,128,129,128,131,128,0
5535,128,124,126,128,131,126,128,129,0
5538,128,129,127,126,129,127,129,128,0
5541,130,128,127,127,127,126,127,127,0
5545,128,128,128,128,128,128,128,127,0
5553,124,126,129,129,127,129,126,126,0
5558,121,130,127,128,127,128,128,128,0
5562,125,127,129,127,129,128,128,128,0
5567,128,124,127,128,129,128,128,128,0
5570,129,126,127,128,127,127,126,127,0
5574,130,129,129,128,128,127,127,128,0
5577,129,129,130,128,128,126,126,127,0
5581,129,127,130,130,126,128,128,126,0
5584,121,127,126,127,127,127,127,126,0
5587,129,127,127,125,128,128,127,128,0
5590,131,129,128,127,128,126,127,128,0
5594,128,127,130,127,128,128,129,127,0
5598,127,125,126,128,128,127,128,127,0
5601,128,128,127,128,127,128,127,127,0
5604,129,128,128,127,129,128,128,128,0
5608,126,127,127,128,128,128,127,126,0
5611,122,127,127,129,127,129,127,127,0
5617,124,126,126,127,131,128,129,129,0
5621,131,129,129,127,129,126,127,129,0
5624,126,128,129,126,130,129,128,127,0
5627,131,125,130,127,129,128,129,128,0
5631,127,127,126,128,129,128,129,129,0
5636,129,128,127,128,127,128,128,128,0
5643,129,127,127,130,128,130,127,123,0
5647,121,129,126,128,126,128,126,126,0
5652,129,127,127,125,128,128,129,129,0
5655,130,128,127,127,127,128,128,129,0
5658,130,127,128,128,126,126,127,127,0
5661,130,127,127,130,127,127,128,127,0
5665,121,125,126,126,128,128,129,129,0
5668,130,129,127,127,127,127,128,127,0
5671,130,128,129,128,128,126,126,127,0
5674,130,127,129,126,127,127,127,128,0
5677,127,126,127,127,127,128,129,129,0
5680,127,129,128,128,127,128,128,129,0
5683,130,128,127,128,127,128,128,127,0
5687,131,127,126,128,128,129,127,126,0
5690,121,129,127,129,126,127,127,128,0
5693,130,129,129,127,128,127,127,127,0
5696,129,128,129,128,129,129,129,128,0
5699,131,127,127,128,127,128,129,126,0
5702,122,128,126,128,126,126,126,128,0
5705,131,130,130,126,128,127,126,128,0
5708,131,129,130,128,128,126,126,127,0
5711,128,125,127,128,129,127,126,128,0
5715,129,126,127,127,130,129,127,129,0
5719,130,128,126,127,128,128,129,128,0
5722,129,127,127,127,127,128,127,128,0
5725,122,126,128,128,128,126,126,127,0
5728,128,126,127,128,126,126,129,128,0
5732,129,128,127,128,126,127,128,129,0
5735,131,126,127,128,127,129,127,127,0
5740,122,128,126,129,128,129,128,125,0
5743,122,128,127,128,127,127,130,129,0
5747,132,129,128,125,130,127,128,128,0
5754,131,128,127,125,129,129,129,128,0
5757,131,126,127,128,127,127,127,125,0
5760,127,126,129,128,128,128,129,128,0
5763,128,128,128,126,129,128,128,129,0
5766,130,127,127,126,128,128,127,129,0
5769,122,129,126,128,127,127,128,126,0
5771,122,128,126,129,126,127,128,127,0
5774,132,128,127,127,127,128,128,129,0
5778,131,127,127,128,128,127,126,127,0
5781,131,126,129,128,127,126,127,126,0
5784,126,124,130,128,129,127,126,127,0
5788,131,127,126,128,128,128,129,128,0
5791,129,129,129,128,126,126,126,127,0
5793,128,128,129,129,129,128,127,127,0
5796,127,125,129,129,125,126,127,128,0
5799,127,128,127,128,128,127,127,128,0
5802,130,127,127,129,128,128,128,128,0
5805,122,129,125,129,128,129,128,125,0
5811,124,127,127,125,128,130,131,129,0
5808,122,128,126,128,127,129,128,126,0
5814,132,128,127,127,127,128,128,129,0
5818,130,127,127,127,126,127,129,128,0
5822,131,127,128,128,126,126,126,127,0
5825,128,128,128,128,127,127,126,129,0
5829,128,130,129,126,129,128,126,127,0
5833,130,126,127,128,129,127,127,126,0
5836,123,128,126,129,127,129,127,126,0
5839,122,129,127,128,129,130,130,129,0
5844,131,129,127,126,128,128,127,128,0
5850,131,128,128,128,126,126,126,127,0
5857,130,125,128,127,129,127,126,125,0
5860,126,126,126,128,130,128,129,129,0
5863,131,128,128,127,126,127,126,128,0
5867,131,128,128,128,125,128,129,127,0
5870,121,129,127,129,127,129,127,127,0
5874,123,127,128,128,128,127,127,127,0
5877,131,130,128,128,128,128,126,127,0
5880,129,128,127,126,127,128,129,128,0
5883,129,125,128,129,129,128,127,128,0
5886,125,127,127,127,128,128,128,129,0
5889,130,128,127,128,126,127,126,127,0
5892,130,128,128,126,128,126,128,128,0
5895,131,126,128,129,129,127,129,125,0
5898,121,128,126,128,127,128,127,127,0
5900,123,128,127,126,127,128,128,128,0
5903,131,128,128,128,126,127,127,127,0
5905,123,126,126,128,128,129,128,126,0
5908,122,127,126,128,126,126,126,127,0
5911,131,129,127,127,129,128,129,128,0
5913,131,127,128,127,127,127,127,128,0
5916,131,125,127,126,128,127,128,125,0
5919,123,127,129,128,129,129,127,128,0
5922,129,128,126,126,129,128,129,128,0
5924,130,127,127,126,127,128,127,127,0
5928,130,127,129,128,127,127,128,127,0
5931,121,129,126,128,128,129,128,127,0
5934,122,130,127,128,127,126,128,128,0
5937,131,127,126,125,127,127,128,127,0
5940,128,128,129,128,128,130,130,127,0
5943,128,124,130,128,128,128,128,128,0
5946,129,128,127,128,130,128,128,129,0
5952,130,127,126,127,129,128,129,128,0
5957,129,124,128,127,128,126,126,127,0
5960,128,126,127,128,127,128,127,127,0
5963,128,128,127,127,128,128,129,129,0
5966,130,129,128,129,126,129,127,126,0
5969,122,129,126,128,127,128,127,125,0
5972,123,128,126,128,130,128,129,128,0
5977,131,128,126,128,129,128,127,128,0
5980,131,128,126,128,128,128,128,128,0
5983,130,128,128,128,128,126,126,127,0
5987,127,126,129,128,131,127,127,128,0
5990,127,128,126,127,131,128,128,130,0
5994,127,128,126,128,127,126,127,129,0
5997,129,126,127,126,128,128,129,128,0
6001,125,126,127,128,126,128,128,127,0
6006,121,130,127,128,127,126,130,129,0
6009,132,130,129,128,128,126,127,128,0
6011,130,128,128,128,127,127,126,125,0
6014,122,125,126,126,131,128,129,128,0
6019,130,127,127,128,126,128,127,128,0
6022,129,129,129,128,127,126,127,128,0
6026,124,128,129,128,127,127,130,128,0
6029,120,128,126,128,128,128,128,127,0
6032,123,128,126,128,124,128,130,130,0
6034,131,128,127,125,128,128,127,128,0
6038,131,126,129,128,127,127,125,127,0
6041,129,126,130,126,129,127,127,127,0
6044,129,127,129,126,129,128,128,129,0
6050,130,128,127,128,126,126,127,127,0
6054,127,128,127,129,127,129,128,125,0
6060,122,128,126,129,126,127,128,125,0
6067,131,128,130,126,129,127,127,128,0
6073,130,129,128,126,128,128,128,129,0
6077,131,126,127,127,127,128,129,127,0
6080,125,127,127,126,129,128,129,126,0
6084,122,127,127,129,125,128,129,129,0
6087,131,128,127,128,127,128,127,128,0
6090,129,128,127,128,126,128,126,127,0
6092,122,127,127,129,126,127,127,126,0
6095,123,125,126,127,128,128,128,129,0
6099,132,129,127,127,128,128,129,128,0
6102,131,127,127,126,130,128,129,128,0
6106,130,126,126,127,126,128,129,128,0
6109,125,126,127,126,129,128,128,128,0
6112,129,128,127,126,129,127,128,129,0
6115,130,128,127,128,127,128,127,127,0
6118,122,128,126,128,127,128,128,126,0
6122,123,127,127,128,129,128,128,128,0
6125,130,129,128,126,129,128,131,129,0
6135,131,128,127,127,127,126,127,128,0
6140,131,126,127,127,125,127,126,127,0
6143,127,127,128,128,127,127,126,128,0
6146,128,129,127,126,128,128,129,129,0
6151,129,128,128,128,127,126,127,128,0
6156,129,126,128,127,128,128,126,128,0
6160,125,126,125,129,127,128,127,127,0
6163,122,129,128,128,124,128,127,128,0
6166,131,129,130,127,128,127,127,127,0
6170,129,127,126,127,127,128,128,128,0
6173,127,125,126,128,127,127,128,128,0
6178,128,128,129,128,127,126,127,128,0
6186,129,129,128,128,128,127,128,127,0
6189,122,129,125,128,128,130,128,124,0
6192,121,128,126,128,126,127,129,128,0
6195,131,127,127,128,129,128,131,129,0
6198,131,127,126,125,131,128,129,128,0
6201,130,126,127,128,129,128,131,127,0
6205,128,124,126,128,131,127,128,128,0
6209,130,128,127,128,128,128,128,129,0
6212,129,127,127,127,128,127,126,127,0
6215,128,128,127,127,126,128,128,126,0
6218,121,128,126,128,128,128,126,127,0
6221,123,128,129,127,128,126,127,128,0
6223,130,129,130,128,129,128,127,128,0
6227,131,126,127,128,130,127,128,128,0
6230,128,125,127,128,124,128,127,128,0
6233,128,127,128,127,126,127,126,128,0
6237,128,129,129,128,127,126,127,127,0
6240,127,128,128,127,128,128,128,126,0
6244,121,129,126,129,127,129,127,127,0
6248,123,127,127,127,129,127,127,128,0
6251,131,128,127,125,130,128,128,128,0
6254,132,127,128,127,127,127,129,128,0
6257,129,125,125,128,126,127,128,128,0
6260,127,128,129,128,126,127,126,128,0
6263,129,130,129,128,128,125,127,128,0
6277,129,126,128,129,126,128,128,126,0
6283,123,127,125,129,128,128,128,125,0
6287,122,128,126,128,126,127,128,128,0
6291,131,129,129,128,130,128,129,128,0
6298,130,128,128,128,126,127,126,127,0
6303,131,126,127,126,128,127,128,128,0
6306,128,126,126,128,128,127,128,128,0
6309,129,128,129,128,126,128,129,129,0
6313,127,127,126,128,125,128,129,127,0
6316,128,126,128,129,127,130,129,123,0
6319,121,128,126,128,127,127,126,128,0
6323,129,129,130,128,128,128,126,128,0
6326,131,129,127,129,130,128,129,128,0
6329,130,125,127,128,128,127,125,127,0
6332,129,127,126,126,127,128,128,129,0
6335,128,128,127,127,128,128,128,129,0
6339,129,128,128,127,125,128,128,128,0
6342,130,125,128,128,126,129,128,126,0
6344,122,129,127,128,126,128,128,129,0
6352,131,129,127,126,127,128,130,129,0
6356,131,127,127,128,127,128,128,128,0
6360,130,125,126,127,127,127,128,128,0
6363,123,126,127,125,129,128,128,129,0
6366,128,128,127,127,126,128,127,128,0
6370,130,128,127,128,126,128,129,129,0
6373,127,127,128,127,124,128,128,124,0
6377,121,128,127,127,127,128,126,127,0
6388,127,129,127,125,129,128,129,128,0
6391,131,127,127,126,129,128,130,128,0
6394,129,126,128,126,128,126,128,126,0
6398,121,124,126,127,128,128,128,128,0
6401,128,128,128,128,127,126,126,128,0
6405,128,129,129,126,129,126,128,127,0
6409,130,126,127,128,128,127,128,126,0
6415,121,129,126,129,129,128,129,127,0
6419,125,129,128,127,129,127,127,128,0
6422,131,128,127,128,128,128,131,129,0
6427,130,126,127,128,127,127,128,126,0
6431,128,126,129,128,124,126,128,128,0
6434,128,128,127,127,128,128,127,128,0
6438,129,128,127,127,128,128,128,128,0
6440,125,127,126,129,128,128,128,126,0
6443,122,128,126,128,128,128,127,128,0
6446,131,128,127,127,127,127,128,128,0
6450,129,129,128,126,128,128,128,128,0
6456,130,126,127,128,127,127,127,127,0
6459,130,126,128,128,126,129,125,127,0
6463,128,128,130,127,129,128,129,129,0
6466,130,128,128,129,128,127,128,128,0
6470,121,125,127,128,126,127,130,127,0
6473,121,127,126,128,128,128,127,126,0
6477,122,129,127,130,126,127,129,129,0
6480,131,129,127,126,128,128,130,128,0
6483,131,128,129,128,127,127,126,127,0
6487,129,126,128,128,129,129,129,128,0
6490,129,127,127,127,126,128,128,128,0
6501,128,128,128,128,125,127,127,127,0
6504,130,128,130,128,126,126,127,126,0
6508,123,128,125,128,128,128,128,126,0
6512,122,128,127,128,127,127,126,128,0
6515,131,129,128,128,129,128,127,126,0
6518,132,128,127,128,129,128,128,128,0
6522,130,126,126,128,129,128,129,128,0
6527,130,126,127,128,128,126,127,128,0
6537,128,129,128,128,127,127,126,127,0
6541,127,128,129,128,125,128,129,126,0
6545,121,129,126,128,127,129,128,127,0
6548,121,128,127,129,127,126,126,128,0
6552,129,128,131,127,128,127,127,128,0
6555,132,127,128,127,127,127,128,128,0
6558,130,127,130,129,127,126,127,128,0
6561,126,127,129,128,128,128,127,128,0
6572,130,128,128,127,126,126,128,128,0
6576,129,128,128,128,125,127,128,127,0
6580,127,128,128,128,126,126,127,127,0
6583,127,126,127,128,126,127,128,128,0
6587,129,128,128,129,127,126,126,127,0
6590,126,128,126,128,128,129,127,125,0
6593,123,128,125,127,128,129,129,126,0
6597,123,129,125,128,129,128,131,128,0
6600,131,128,127,125,130,130,131,129,0
6604,131,129,128,128,129,128,129,128,0
6607,128,127,129,128,129,128,128,128,0
6611,127,125,127,128,129,128,128,128,0
6614,129,129,128,128,127,127,128,128,0
6618,129,127,129,128,128,127,126,127,0
6622,129,127,130,128,128,127,128,128,0
6625,123,126,125,128,126,129,128,127,0
6628,122,129,126,128,127,128,128,129,0
6631,132,128,128,126,128,126,129,129,0
6635,130,127,127,128,125,128,128,127,0
6646,129,126,127,126,128,127,126,127,0
6653,130,128,127,126,130,128,131,129,0
6657,129,128,126,128,128,128,129,128,0
6663,120,129,126,128,127,128,127,126,0
6666,122,127,127,128,126,126,127,128,0
6670,131,129,130,126,128,127,127,128,0
6673,129,129,129,128,128,128,126,127,0
6677,128,127,128,129,128,128,129,128,0
6683,124,127,129,128,129,128,129,129,0
6686,129,128,128,127,127,127,126,128,0
6690,129,129,128,128,126,127,129,128,0
6693,130,128,130,127,129,126,126,127,0
6696,128,127,128,128,130,126,126,127,0
6700,126,128,128,129,129,129,128,128,0
6703,129,127,127,128,127,127,127,128,0
6707,128,126,127,129,127,131,127,124,0
6710,120,129,125,128,128,130,127,127,0
6713,124,127,128,127,127,128,127,128,0
6719,130,129,129,127,128,128,128,128,0
6723,131,128,130,128,126,126,126,127,0
6725,129,125,127,128,129,127,126,126,0
6728,128,127,129,127,127,127,126,128,0
6732,129,130,130,126,129,126,128,129,0
6735,125,128,130,129,128,127,126,127,0
6739,128,124,128,128,128,126,128,126,0
6741,121,129,126,128,127,128,127,127,0
6757,125,130,128,127,128,127,127,127,0
6762,129,129,130,128,124,128,127,127,0
6766,129,127,127,128,132,128,129,128,0
6772,129,127,127,126,130,127,128,129,0
6776,131,128,128,127,128,128,128,128,0
6780,125,126,128,128,127,128,128,126,0
6787,122,129,125,128,128,128,127,126,0
6790,122,129,126,128,130,127,126,128,0
6794,130,129,127,126,128,127,127,128,0
6797,129,129,128,127,129,127,127,127,0
6800,130,126,127,128,131,128,129,127,0
6806,129,125,128,128,129,128,127,129,0
6810,130,128,127,126,131,127,128,128,0
6813,128,128,128,127,128,127,128,125,0
6817,123,128,126,128,127,128,127,125,0
6820,122,128,125,127,128,127,128,128,0
6879,131,129,130,128,129,130,128,128,0
6890,131,128,128,128,127,127,126,127,0
6897,129,125,128,128,128,127,126,127,0
6902,128,127,129,128,128,128,127,128,0
6907,130,127,126,127,127,128,130,129,0
6949,129,127,127,129,125,127,127,127,0
6960,128,127,127,129,126,129,128,127,0
6968,120,128,126,129,127,128,127,128,0
6976,130,129,127,127,128,128,129,129,0
6981,131,127,126,125,130,127,129,129,0
6986,125,127,127,128,129,128,129,128,0
6990,127,123,127,129,128,127,127,128,0
6994,130,128,126,128,126,127,129,129,0
6997,129,129,129,128,125,128,128,128,0
7000,129,126,128,129,126,128,126,125,0
7004,122,127,125,129,127,129,127,127,0
7007,128,129,128,126,129,128,127,128,0
7010,129,129,130,128,129,128,128,128,0
7015,130,125,129,128,128,127,126,127,0
7019,129,126,127,128,129,128,126,127,0
7023,127,129,128,126,128,128,127,128,0
7026,128,128,127,126,128,128,128,128,0
7029,128,124,128,127,128,130,128,124,0
7033,121,129,125,127,127,127,129,128,0
7079,130,128,126,126,128,127,128,129,0
7084,131,128,127,127,127,128,130,129,0
7091,131,127,128,128,129,128,128,128,0
7096,129,125,127,126,127,127,129,128,0
7101,128,128,128,127,126,127,128,129,0
7151,129,128,129,128,124,127,127,128,0
7170,128,127,129,129,129,127,128,127,0
7179,121,128,126,129,127,129,127,127,0
7183,122,125,130,128,128,127,127,128,0
7187,131,129,130,127,129,126,128,128,0
7191,128,128,129,128,128,127,128,127,0
7195,128,125,126,128,127,126,126,127,0
7198,127,127,128,126,128,126,127,128,0
7202,129,129,128,129,125,128,127,127,0
7205,127,127,128,126,128,127,128,128,0
7208,124,124,127,129,127,130,128,125,0
7211,121,129,125,129,125,127,127,129,0
7215,131,128,127,126,128,130,129,129,0
7218,130,126,126,127,127,126,127,127,0
7222,130,127,130,128,126,128,128,128,0
7225,129,127,127,127,128,128,126,128,0
7228,130,128,128,128,126,127,127,127,0
7232,127,129,128,126,124,128,129,126,0
7238,121,129,126,127,128,129,128,126,0
7242,122,128,125,129,126,129,130,129,0
7245,131,129,128,127,127,128,127,127,0
7248,129,129,129,128,128,127,128,127,0
7251,129,126,127,126,128,128,129,127,0
7255,126,127,128,128,128,128,127,129,0
7260,127,129,129,128,129,127,127,128,0
7263,126,129,128,127,127,128,127,125,0
7266,123,127,125,127,128,129,128,127,0
7268,123,127,129,127,128,128,127,128,0
7271,131,130,127,126,130,128,130,129,0
7274,130,128,127,126,129,128,129,128,0
7276,130,127,128,128,127,128,127,128,0
7279,128,127,127,128,129,128,128,129,0
7282,131,128,127,128,128,128,128,128,0
7285,129,128,129,128,125,127,129,129,0
7289,126,126,127,128,128,127,127,126,0
7292,120,128,127,129,127,128,126,128,0
7295,130,129,127,128,128,126,125,128,0
7299,131,128,129,128,127,126,127,127,0
7302,129,127,129,128,127,126,126,127,0
7305,127,126,128,126,129,129,127,128,0
7309,129,128,127,128,128,128,128,129,0
7312,130,126,127,126,124,127,127,128,0
7315,129,127,127,128,127,128,127,126,0
7349,122,127,125,128,128,129,127,127,0
7354,123,128,129,128,128,127,127,128,0
7357,131,128,129,127,131,128,129,128,0
7361,131,127,128,127,126,126,127,127,0
7365,130,124,126,128,129,128,129,128,0
7372,130,128,127,127,126,128,129,129,0
7417,130,127,127,128,126,126,127,127,0
7428,129,127,128,128,127,128,127,126,0
7443,122,128,126,129,126,128,127,126,0
7450,123,127,128,128,129,128,129,129,0
7456,131,128,127,126,128,128,129,127,0
7459,129,127,127,128,128,125,126,128,0
7464,125,126,129,128,125,127,127,128,0
7467,128,128,127,126,128,128,129,129,0
7471,130,128,128,127,127,128,129,128,0
7475,129,127,128,128,126,127,128,128,0
7478,127,126,126,128,128,128,126,126,0
7482,122,128,126,128,126,127,128,128,0
7485,130,129,129,127,131,128,129,128,0
7488,129,127,126,127,128,126,128,127,0
7491,128,126,128,128,126,127,127,128,0
7495,128,127,127,127,126,126,128,129,0
7498,129,128,128,128,126,126,127,128,0
7501,128,128,127,128,127,129,128,126,0
7504,121,128,126,128,126,128,127,126,0
7508,122,129,127,128,128,127,126,128,0
7511,129,128,127,126,127,128,128,128,0
7514,131,127,128,128,127,126,126,127,0
7517,130,127,128,128,127,126,127,127,0
7521,129,127,128,126,129,127,127,128,0
7524,128,128,127,126,131,126,128,128,0
7527,129,127,128,127,126,126,126,127,0
7531,129,127,129,129,127,129,127,125,0
7534,122,128,125,128,128,128,127,129,0
7540,131,129,127,127,127,127,130,128,0
7544,130,128,128,126,126,127,126,127,0
7549,129,126,128,128,126,128,128,127,0
7556,128,127,128,128,127,126,127,128,0
7560,130,130,129,127,128,126,127,128,0
7563,129,128,127,126,127,127,127,127,0
7566,130,126,127,128,128,128,126,125,0
7569,121,129,126,129,127,128,127,128,0
7573,130,130,128,127,127,127,127,128,0
7576,132,129,130,128,131,128,128,128,0
7579,128,126,127,127,130,128,129,128,0
7583,128,126,127,128,126,128,126,128,0
7585,129,130,130,128,129,127,128,129,0
7589,131,125,129,127,126,128,126,128,0
7592,126,128,125,128,128,127,127,126,0
7594,121,127,126,127,126,126,128,129,0
7598,131,128,128,127,127,127,128,127,0
7619,131,128,128,128,126,127,126,127,0
7623,130,126,127,127,126,127,128,126,0
7627,123,127,127,128,129,128,128,127,0
7631,130,128,127,126,128,128,129,129,0
7635,130,127,127,127,129,128,127,127,0
7687,130,127,128,128,128,126,126,125,0
7698,120,128,126,128,128,128,127,127,0
7707,122,131,127,127,128,127,127,127,0
7716,131,128,127,128,132,127,128,128,0
7723,130,125,130,126,129,127,127,128,0
7729,121,126,127,128,128,128,127,128,0
7735,122,129,128,127,128,127,127,128,0
7744,131,128,127,126,127,128,131,129,0
7750,128,126,128,127,127,126,127,126,0
7754,129,127,127,129,127,126,127,126,0
7758,124,129,130,126,132,128,127,129,0
7761,130,128,126,128,128,128,130,128,0
7764,124,128,126,128,127,129,128,126,0
7767,122,127,126,128,127,128,127,128,0
7771,123,128,129,126,127,127,130,129,0
7774,132,129,127,127,127,127,128,128,0
7777,129,128,129,128,129,127,128,128,0
7780,128,126,127,126,127,127,127,128,0
7784,127,129,129,128,128,127,127,128,0
7787,128,129,127,128,128,128,129,129,0
7790,127,126,127,128,127,128,129,127,0
7793,128,128,129,129,127,128,128,128,0
7797,130,127,127,127,127,127,127,128,0
7800,129,129,129,128,127,126,126,127,0
7803,127,128,125,128,128,131,128,125,0
7806,120,128,127,129,127,127,127,128,0
7810,130,127,127,125,129,128,131,129,0
7813,130,129,128,126,127,127,130,128,0
7817,130,127,128,127,127,126,126,127,0
7820,130,126,128,128,127,127,126,127,0
7822,129,127,128,128,127,127,126,129,0
7825,129,128,128,127,128,126,128,128,0
7829,127,128,129,128,123,127,128,126,0
7832,122,128,126,128,127,129,128,127,0
7835,122,128,127,128,129,127,128,129,0
7839,131,129,128,126,128,128,128,128,0
7842,130,127,126,125,128,130,130,128,0
7846,128,125,126,127,128,130,129,127,0
7849,128,127,129,129,129,126,126,128,0
7851,128,129,129,126,128,127,128,128,0
7857,129,127,127,127,128,127,126,128,0
7865,130,125,127,129,127,129,128,125,0
7869,122,128,126,128,127,127,126,127,0
7873,129,130,130,127,127,128,126,128,0
7876,130,127,127,126,127,129,129,128,0
7880,128,126,126,128,129,127,126,128,0
7883,128,125,126,128,127,128,131,129,0
7886,129,130,130,126,129,128,128,128,0
7889,127,128,129,128,125,126,127,126,0
7892,122,128,125,129,127,129,128,125,0
7895,122,127,126,128,127,127,129,129,0
7899,132,128,127,129,129,128,129,129,0
7902,131,128,127,127,127,127,128,128,0
7906,130,126,127,125,128,128,131,128,0
7909,128,126,126,128,129,128,128,129,0
7913,129,128,127,128,127,128,128,129,0
7918,122,130,127,129,127,128,127,126,0
7921,123,128,126,128,126,126,129,127,0
7923,129,126,127,128,129,128,126,128,0
7926,129,130,130,126,129,128,130,129,0
7929,131,127,126,126,129,128,129,128,0
7932,131,126,127,128,127,127,129,128,0
7936,127,126,127,128,124,127,125,127,0
7939,128,128,128,128,124,127,127,128,0
7943,124,129,129,129,125,127,126,127,0
7945,128,127,127,127,130,128,127,125,0
7949,121,129,127,128,127,128,128,127,0
7952,122,129,127,128,132,128,127,128,0
7955,131,128,127,128,129,128,128,127,0
7959,130,128,127,129,130,127,127,127,0
7962,129,126,127,128,126,127,126,128,0
7966,128,129,129,128,127,126,125,128,0
7970,128,129,128,128,128,128,126,127,0
7975,126,126,128,128,126,128,127,126,0
7979,121,129,127,128,127,128,127,126,0
7982,128,128,127,127,128,128,127,127,0
7985,130,129,130,127,129,128,128,128,0
7988,130,126,129,128,128,127,128,128,0
7992,129,124,128,126,127,127,128,128,0
7994,129,128,128,128,126,127,127,128,0
7997,128,129,131,128,128,126,127,127,0
8000,129,127,128,128,127,127,129,126,0
8003,121,128,126,128,127,128,127,126,0
8006,122,129,126,128,126,128,128,129,0
8009,131,129,127,127,127,128,127,128,0
8012,131,127,126,127,126,126,127,128,0
8015,129,126,128,128,126,128,128,128,0
8019,129,128,128,126,129,128,128,128,0
8022,128,129,130,126,127,125,127,127,0
8027,129,128,128,126,126,128,128,125,0
8030,123,128,126,129,129,128,129,127,0
8035,122,128,129,126,128,127,126,128,0
8042,130,129,130,126,128,128,129,128,0
8046,131,127,127,128,127,125,126,127,0
8049,129,127,129,127,127,127,128,128,0
8052,127,126,127,128,128,128,129,129,0
8056,130,128,128,128,126,127,128,129,0
8061,129,128,129,128,128,127,126,127,0
8064,129,127,127,127,124,129,128,127,0
8067,120,128,126,128,127,128,126,127,0
8071,123,126,130,128,128,128,127,127,0
8074,129,128,129,128,129,128,129,127,0
8079,122,127,126,127,127,128,128,126,0
8085,122,128,126,127,127,126,126,127,0
8091,130,130,130,127,129,128,127,127,0
8095,131,128,129,128,129,129,129,128,0
8098,130,126,126,125,127,127,130,128,0
8101,128,126,128,128,127,128,127,128,0
8104,129,128,129,126,128,127,127,129,0
8107,130,128,128,128,128,128,129,128,0
8111,125,126,128,127,128,126,126,128,0
8114,125,126,126,128,126,128,126,127,0
8117,122,128,127,127,127,128,128,128,0
8120,130,128,128,127,127,126,126,128,0
8123,129,126,127,128,127,127,127,127,0
8126,129,126,127,127,128,126,126,127,0
8129,128,129,128,128,128,127,128,128,0
8132,127,128,129,128,128,126,125,128,0
8135,128,127,129,129,126,129,126,125,0
8139,121,128,125,128,127,129,128,127,0
8142,122,130,127,129,126,128,127,128,0
8146,131,129,128,128,127,127,127,127,0
8152,130,127,126,128,131,127,128,127,0
8155,130,126,126,127,126,128,128,127,0
8158,130,128,129,127,126,127,126,128,0
8161,130,129,129,127,128,127,129,129,0
8165,126,126,127,129,127,129,127,126,0
8168,121,126,126,129,126,127,127,129,0
8171,131,128,128,127,128,128,127,128,0
8175,131,130,129,126,128,127,127,128,0
8179,129,127,129,128,128,127,126,128,0
8182,130,126,127,129,127,127,126,127,0
8187,128,128,130,126,129,127,128,128,0
8190,127,129,128,128,124,128,128,128,0
8195,128,126,127,128,127,128,126,127,0
8200,122,128,125,129,128,129,128,127,0
8204,122,130,127,128,127,127,127,128,0
8206,127,129,128,126,127,127,126,127,0
8209,131,128,127,128,129,130,129,128,0
8212,130,126,126,128,127,127,125,127,0
8214,130,128,128,128,129,127,127,128,0
8217,130,130,130,128,128,127,127,128,0
8220,126,128,129,126,125,126,129,128,0
8223,128,125,127,126,128,127,127,128,0
8226,127,127,127,128,126,127,126,128,0
8229,129,129,129,128,127,126,126,127,0
8231,129,127,128,128,125,127,129,128,0
8235,129,128,127,130,126,129,129,124,0
8238,121,130,125,126,127,128,127,129,0
8243,131,130,129,127,128,128,128,128,0
8246,130,129,129,126,127,126,126,127,0
8250,130,128,130,128,127,127,128,127,0
8253,128,127,128,127,126,128,129,129,0
8257,129,128,127,127,125,127,127,127,0
8259,130,127,127,128,127,127,127,125,0
8263,122,128,127,128,128,129,128,126,0
8266,122,128,127,129,125,130,131,129,0
8270,131,129,128,126,129,127,128,128,0
8273,131,128,127,125,129,130,129,128,0
8275,130,126,127,128,127,127,126,128,0
8279,127,127,127,127,128,127,126,128,0
8282,129,130,129,127,128,126,126,128,0
8285,128,129,130,128,126,126,126,127,0
8289,124,128,130,128,127,126,127,127,0
8293,128,127,127,128,126,127,127,127,0
8300,122,130,126,128,126,128,127,127,0
8303,130,128,128,126,127,127,128,127,0
8309,124,124,129,127,128,128,128,129,0
8306,131,126,129,126,129,126,127,127,0
8312,130,129,128,128,129,128,128,129,0
8316,129,127,127,126,129,127,128,127,0
8319,129,127,129,129,128,126,126,127,0
8322,121,128,126,128,128,128,127,127,0
8326,124,128,128,128,128,127,127,127,0
8329,130,128,127,126,128,128,129,128,0
8333,131,125,127,128,130,128,127,128,0
8337,128,126,126,128,127,128,129,129,0
8342,128,128,127,128,127,127,128,128,0
8347,129,127,127,128,126,126,127,127,0
8350,128,127,129,128,126,127,126,127,0
8353,125,126,127,129,127,129,126,126,0
8358,122,130,127,128,127,129,127,128,0
8361,132,130,130,126,129,128,127,128,0
8364,129,127,127,128,132,127,128,127,0
8367,129,125,126,128,126,128,128,127,0
8370,128,129,128,128,125,128,127,129,0
8373,131,128,127,128,126,127,127,128,0
8376,120,129,125,129,127,129,127,126,0
8379,122,128,125,128,128,128,127,126,0
8383,125,127,128,127,125,127,127,129,0
8386,132,128,127,127,127,126,127,127,0
8391,131,128,127,128,128,128,129,127,0
8395,129,125,128,128,131,128,129,128,0
8399,130,127,127,126,128,128,129,129,0
8403,125,129,130,128,129,127,126,128,0
8407,127,126,128,128,128,127,127,127,0
8414,128,125,127,126,129,130,127,126,0
8418,122,129,126,128,126,127,127,127,0
8421,123,128,128,125,130,127,130,128,0
8424,131,127,127,127,125,127,125,127,0
8428,129,126,128,128,130,128,128,128,0
8431,128,126,126,127,129,128,129,129,0
8434,127,128,127,127,128,128,129,129,0
8440,127,126,127,128,128,127,127,126,0
8444,122,129,126,128,127,128,127,127,0
8447,123,127,127,128,128,128,130,129,0
8450,131,128,126,126,128,128,128,128,0
8452,131,127,128,127,127,126,126,127,0
8455,127,127,129,129,129,126,126,127,0
8458,127,128,128,128,129,128,127,128,0
8462,128,129,128,126,128,127,127,128,0
8465,126,128,129,127,128,128,127,128,0
8468,129,127,127,127,128,127,127,125,0
8470,120,128,127,129,128,128,127,128,0
8474,122,130,127,128,126,126,130,128,0
8477,131,127,128,127,127,126,129,128,0
8480,129,126,128,127,126,127,127,127,0
8483,127,126,127,127,125,128,128,129,0
8486,130,129,128,127,127,127,126,127,0
8489,128,128,128,126,128,128,127,127,0
8492,121,128,126,128,127,129,127,125,0
8496,122,129,126,127,126,127,127,128,0
8499,131,129,129,126,128,128,126,127,0
8501,130,129,129,128,128,128,128,127,0
8504,131,125,130,126,128,127,126,127,0
8509,128,125,129,126,130,126,128,128,0
8513,128,130,129,128,128,128,128,129,0
8517,128,128,128,128,124,127,129,128,0
8520,127,125,128,129,127,129,128,127,0
8523,121,127,126,129,127,128,127,128,0
8526,123,130,128,126,128,126,127,128,0
8529,132,130,129,128,128,127,127,128,0
8532,130,126,129,128,128,128,127,128,0
8536,129,126,126,128,126,127,125,128,0
8539,128,129,130,128,128,126,127,128,0
8542,128,129,130,129,128,127,126,128,0
8545,131,125,127,129,127,128,128,125,0
8548,121,128,126,127,127,127,127,128,0
8552,129,129,128,128,131,128,128,128,0
8555,132,127,127,126,128,128,131,129,0
8558,129,126,128,127,126,127,128,127,0
8561,129,126,128,128,127,126,127,127,0
8564,128,128,128,128,126,127,126,128,0
8567,128,129,129,129,127,128,128,126,0
8571,121,128,126,127,128,129,127,126,0
8575,122,127,128,128,127,128,127,128,0
8578,130,129,128,128,129,127,128,129,0
8582,130,128,127,128,128,128,129,128,0
8586,130,127,127,127,125,128,128,128,0
8588,122,127,125,129,127,128,128,126,0
8592,123,128,130,128,129,128,129,128,0
8595,132,128,127,127,128,128,129,129,0
8599,131,126,126,127,127,129,127,128,0
8603,130,125,127,127,125,127,126,127,0
8606,128,127,129,128,125,127,126,127,0
8611,129,129,129,127,128,126,129,128,0
8620,129,124,128,128,128,127,127,128,0
8623,126,127,129,129,127,128,127,127,0
8626,121,129,126,128,127,128,127,127,0
8630,126,130,129,128,129,128,128,128,0
8633,130,128,127,128,131,128,129,128,0
8636,124,127,129,128,127,128,126,127,0
8640,128,127,129,126,129,127,128,129,0
8646,129,128,126,128,127,127,128,129,0
8650,128,128,127,128,127,128,126,126,0
8654,124,127,125,127,128,128,127,126,0
8657,122,129,126,128,127,127,125,127,0
8660,129,129,128,128,129,126,127,127,0
8664,132,128,128,126,127,126,126,126,0
8667,131,125,128,128,131,130,128,128,0
8670,130,127,127,126,129,128,128,129,0
8674,129,129,128,127,127,127,128,128,0
8677,130,127,129,127,127,127,127,128,0
8680,127,126,127,128,128,127,127,127,0
8682,127,127,127,126,129,128,128,129,0
8686,128,127,128,128,127,128,129,128,0
8690,127,128,129,129,126,129,128,126,0
8693,122,129,127,128,127,128,128,125,0
8696,122,129,126,128,125,130,129,128,0
8699,130,128,127,127,127,127,130,128,0
8702,131,128,128,128,127,127,126,127,0
8705,131,127,128,127,125,128,129,128,0
8709,127,127,128,126,128,128,128,129,0
8712,130,127,127,127,126,127,128,129,0
8715,130,127,127,128,125,127,127,128,0
8721,128,127,126,128,126,129,128,127,0
8725,122,128,125,128,127,129,127,127,0
8729,131,128,128,127,128,130,129,128,0
8735,131,128,128,128,128,127,127,128,0
8739,131,125,126,128,127,127,125,127,0
8742,125,126,127,127,126,127,127,128,0
8745,129,128,127,127,127,127,126,128,0
8748,129,129,129,126,125,127,126,128,0
8752,128,126,128,128,126,126,127,128,0
8755,125,127,126,129,126,128,127,127,0
8759,123,129,127,128,129,129,129,129,0
8761,131,127,127,127,129,128,127,128,0
8764,129,128,128,126,127,126,126,127,0
8769,127,125,129,127,129,126,128,128,0
8773,128,128,128,126,129,128,126,128,0
8778,128,129,128,126,129,127,128,128,0
8781,125,127,128,126,129,128,131,126,0
8784,121,130,124,129,128,130,127,126,0
8787,122,128,127,128,129,128,131,129,0
8793,129,128,127,125,128,128,128,128,0
8797,129,127,129,128,127,126,126,127,0
8801,128,125,129,128,128,128,127,129,0
8804,128,127,126,126,128,128,126,128,0
8807,129,129,129,128,126,126,127,127,0
8811,130,126,127,129,125,128,130,127,0
8814,126,127,126,128,125,128,128,128,0
8817,129,127,126,127,127,128,129,129,0
8821,130,128,128,128,129,126,129,127,0
8824,122,129,125,128,126,128,127,126,0
8827,123,127,125,127,128,129,129,127,0
8830,124,127,126,127,130,128,128,129,0
8835,131,129,127,127,127,128,126,127,0
8839,130,126,128,126,127,126,130,128,0
8847,130,126,127,128,128,129,130,128,0
8850,129,128,129,127,127,127,126,127,0
8857,129,129,128,128,129,127,127,128,0
8860,129,126,128,127,126,127,126,127,0
8862,129,126,127,128,127,126,129,128,0
8865,125,127,128,126,129,127,126,128,0
8868,128,129,128,126,126,127,128,128,0
8871,129,127,128,129,127,128,128,128,0
8875,126,125,127,128,128,130,128,125,0
8878,120,130,126,128,127,127,126,128,0
8882,132,129,129,128,127,126,128,128,0
8885,131,129,128,128,128,129,128,128,0
8889,131,128,128,126,127,126,126,127,0
8892,129,126,126,127,129,128,129,129,0
8895,127,128,127,128,128,128,130,128,0
8898,131,126,127,126,128,127,129,127,0
8900,121,128,126,128,127,128,128,126,0
8903,122,127,127,126,128,128,127,128,0
8906,131,130,130,128,131,128,129,129,0
8909,130,127,127,127,126,127,128,128,0
8912,129,126,127,127,127,128,128,128,0
8914,127,126,127,127,128,128,126,128,0
8917,129,127,127,127,129,128,130,129,0
8920,130,127,128,128,124,128,128,127,0
8923,129,126,126,126,128,128,129,128,0
8926,126,125,126,129,124,128,128,128,0
8930,125,129,128,126,127,128,128,128,0
8932,121,130,126,128,127,129,127,125,0
8935,123,129,126,127,128,129,129,125,0
8939,123,127,125,127,128,128,128,127,0
8944,130,128,127,126,127,128,129,127,0
8951,132,128,127,127,128,128,128,127,0
8955,131,126,127,128,129,130,128,128,0
8959,129,125,127,128,126,128,127,128,0
8962,130,128,129,127,128,126,126,128,0
8965,130,128,129,128,128,127,126,127,0
8968,128,126,129,128,126,127,126,127,0
8971,127,126,128,129,127,126,125,127,0
8975,128,129,129,128,129,126,127,128,0
8978,129,128,128,129,125,127,129,128,0
8981,123,125,127,129,125,128,129,128,0
8984,128,125,128,127,129,127,129,126,0
8987,121,129,126,128,127,128,126,127,0
8990,125,127,126,127,126,128,129,128,0
8993,129,125,126,126,128,126,127,127,0
8995,131,125,126,126,128,128,130,128,0
8998,131,128,127,128,126,127,127,127,0
9001,128,129,128,128,124,126,129,128,0
9005,123,128,126,128,128,127,127,126,0
9008,123,129,126,128,128,128,127,126,0
9013,123,129,128,127,127,128,129,128,0
9015,132,130,128,126,128,126,126,127,0
9018,131,128,129,128,129,128,128,128,0
9021,130,125,127,126,128,128,128,127,0
9024,130,127,127,128,128,127,126,128,0
9027,128,129,131,128,128,127,129,127,0
9030,122,129,127,128,129,128,128,126,0
9036,122,127,127,129,125,128,129,127,0
9039,131,127,128,127,128,127,127,128,0
9043,130,129,127,126,128,128,130,128,0
9049,131,127,129,128,126,126,127,127,0
9052,131,127,129,128,129,128,127,128,0
9059,128,126,127,126,128,128,129,129,0
9062,129,127,127,127,126,128,128,128,0
9065,130,126,127,128,128,127,126,127,0
9068,128,126,128,130,127,128,127,126,0
9071,121,128,127,128,127,129,127,127,0
9079,124,129,129,128,129,127,129,128,0
9084,130,127,128,127,130,127,127,127,0
9088,128,126,126,127,129,128,129,127,0
9091,130,126,127,127,127,128,128,128,0
9094,129,130,129,128,125,126,126,128,0
9097,127,128,130,126,126,127,125,127,0
9100,125,123,128,128,125,126,127,127,0
9104,128,123,127,126,129,128,128,129,0
9107,126,128,128,126,129,127,127,129,0
9110,129,128,127,129,127,128,127,127,0
9113,122,128,126,129,128,129,128,126,0
9116,122,128,126,128,126,128,127,128,0
9120,131,129,127,125,127,127,127,127,0
9123,129,128,128,128,127,127,127,127,0
9126,131,126,127,128,127,127,128,126,0
9129,123,126,128,128,128,128,128,129,0
9132,130,129,129,127,127,127,126,128,0
9136,129,129,129,128,126,127,127,128,0
9139,130,128,128,127,126,127,128,128,0
9142,121,126,127,128,128,127,126,127,0
9145,122,129,128,128,129,129,129,128,0
9149,132,128,128,127,126,126,127,127,0
9151,130,127,128,128,126,126,127,127,0
9154,128,127,127,126,128,129,129,128,0
9159,130,129,127,127,126,127,129,128,0
9164,129,129,128,128,127,128,127,126,0
9169,123,129,126,129,126,127,126,125,0
9171,122,128,126,128,125,130,131,129,0
9174,130,128,127,126,127,128,129,128,0
9177,131,128,127,127,129,130,129,129,0
9179,129,126,127,128,129,130,129,128,0
9182,129,124,126,128,129,127,128,129,0
9186,130,127,127,127,127,128,127,128,0
9189,129,129,129,129,127,127,128,128,0
9192,127,127,128,127,128,128,130,127,0
9195,121,128,126,128,127,128,127,126,0
9198,122,128,128,128,129,127,127,128,0
9202,130,128,130,128,128,128,128,128,0
9205,128,125,129,126,128,128,129,128,0
9208,128,126,127,128,129,128,129,129,0
9211,128,127,128,128,129,128,129,129,0
9216,129,127,127,127,127,128,129,128,0
9219,127,127,128,127,126,126,127,127,0
9221,121,129,125,128,127,128,127,127,0
9225,122,129,126,128,126,126,130,129,0
9228,131,128,127,127,127,127,127,128,0
9231,129,128,128,127,126,127,128,127,0
9234,130,125,126,126,128,128,129,128,0
9237,129,126,126,127,127,127,128,128,0
9240,129,130,130,127,128,127,128,128,0
9242,127,128,130,128,128,127,128,126,0
9252,123,127,126,128,128,128,127,127,0
9256,122,129,126,128,127,128,127,128,0
9260,129,129,128,127,128,128,127,128,0
9264,130,127,129,128,128,130,131,129,0
9271,128,126,127,128,130,128,129,128,0
9276,128,127,126,127,126,127,125,128,0
9280,128,129,129,128,128,126,125,128,0
9283,126,128,130,129,127,128,128,126,0
9286,123,127,126,128,128,128,127,125,0
9289,122,128,129,128,130,127,127,128,0
9293,130,128,127,128,129,130,129,128,0
9296,132,126,129,128,130,128,128,128,0
9299,130,127,127,126,128,128,126,126,0
9302,125,126,127,127,128,127,127,128,0
9305,129,129,129,128,125,127,126,127,0
9308,130,127,129,128,125,127,127,126,0
9312,129,126,126,128,128,128,127,125,0
9315,121,129,127,128,125,128,128,127,0
9318,131,129,127,125,129,128,128,128,0
9322,131,127,127,125,128,127,128,128,0
9325,130,126,128,128,127,126,127,128,0
9328,129,127,128,128,128,127,126,127,0
9331,128,129,128,126,129,126,128,128,0
9334,130,127,127,128,127,127,128,127,0
9338,121,127,127,128,127,129,128,126,0
9341,122,127,126,128,127,128,125,128,0
9344,129,129,128,127,128,127,126,127,0
9348,128,128,130,128,129,127,126,128,0
9351,129,126,129,127,129,126,126,127,0
9354,125,125,129,128,128,127,127,128,0
9359,130,129,127,128,128,127,127,129,0
9362,127,128,128,126,128,128,128,128,0
9366,129,126,128,127,128,126,126,127,0
9372,128,126,127,128,129,127,126,128,0
9377,126,129,129,128,129,126,127,128,0
9380,123,130,126,129,127,127,128,127,0
9383,122,129,126,128,127,128,127,126,0
9387,123,127,127,128,127,126,130,127,0
9390,131,128,127,126,128,127,127,128,0
9393,132,128,127,127,128,127,126,127,0
9396,131,128,130,128,128,126,126,127,0
9400,127,125,129,126,128,127,127,128,0
9403,128,129,128,126,128,128,129,129,0
9406,131,127,127,126,128,128,127,128,0
9410,129,127,128,128,128,127,127,126,0
9413,121,128,126,128,127,129,127,126,0
9416,122,129,127,126,129,128,128,128,0
9419,130,129,128,127,127,127,127,127,0
9423,129,127,127,126,126,127,126,127,0
9426,128,126,129,128,130,127,127,128,0
9429,130,126,127,126,129,128,127,129,0
9432,131,127,129,127,126,128,130,129,0
9435,126,125,128,128,126,126,126,127,0
9439,124,127,128,128,126,128,127,126,0
9441,121,129,126,128,127,128,127,126,0
9446,123,130,126,128,128,129,127,127,0
9450,128,128,128,128,129,129,130,128,0
9453,129,126,127,125,128,128,128,128,0
9456,129,129,130,128,128,128,129,129,0
9460,131,129,128,127,127,127,126,127,0
9462,130,127,127,128,129,126,126,126,0
9465,131,127,128,129,128,126,127,127,0
9468,128,128,128,128,126,127,127,128,0
9472,129,128,126,128,128,127,126,127,0
9478,128,126,128,126,128,127,128,128,0
9482,126,126,127,128,128,127,128,126,0
9485,120,129,126,128,126,127,127,128,0
9490,122,130,127,129,127,128,127,126,0
9496,123,129,127,128,127,128,126,126,0
9499,133,126,127,127,127,127,129,127,0
9504,129,128,128,127,127,127,128,129,0
9508,130,129,127,127,127,127,129,129,0
9511,130,129,128,126,129,126,126,127,0
9516,130,127,129,128,126,127,126,128,0
9519,128,126,127,128,128,128,126,128,0
9523,130,129,129,128,126,127,126,127,0
9526,128,128,129,129,125,127,128,127,0
9529,121,128,126,128,128,128,127,126,0
9533,122,128,127,129,127,128,130,129,0
9535,131,129,127,127,127,127,127,128,0
9539,130,128,127,126,130,126,127,127,0
9542,127,127,128,128,124,127,128,128,0
9545,121,125,126,128,129,128,128,129,0
9555,129,129,128,127,127,127,126,128,0
9558,128,128,130,128,126,128,128,127,0
9565,122,128,126,129,127,128,127,126,0
9568,122,127,126,128,127,126,127,129,0
9571,129,130,131,127,127,127,127,128,0
9575,131,129,130,125,128,128,127,127,0
9579,128,125,128,126,128,126,126,127,0
9582,126,124,126,126,127,129,129,129,0
9586,130,128,127,127,126,127,127,128,0
9589,129,128,129,128,126,127,129,128,0
9594,124,127,127,127,129,127,128,125,0
9601,121,129,126,129,127,127,126,127,0
9605,129,129,130,128,129,127,128,128,0
9609,130,128,126,126,128,128,129,128,0
9612,130,127,128,128,126,126,126,127,0
9615,127,123,127,129,127,128,127,128,0
9619,128,128,128,126,129,128,128,129,0
9622,129,128,129,129,126,128,128,128,0
9625,127,127,127,128,126,127,127,127,0
9628,124,126,128,128,125,128,128,128,0
9632,121,129,126,128,127,129,128,127,0
9635,124,129,128,129,127,128,128,127,0
9638,125,128,127,128,128,129,127,126,0
9641,124,128,126,128,127,127,126,127,0
9645,132,128,127,127,129,128,127,128,0
9648,130,129,127,128,129,127,126,128,0
9652,131,128,129,128,130,127,128,128,0
9655,130,125,126,127,127,127,127,127,0
9658,129,128,129,126,128,128,128,128,0
9662,130,129,129,128,126,127,126,127,0
9665,128,127,130,127,124,130,127,128,0
9668,129,125,126,129,126,127,125,127,0
9672,127,128,128,126,128,127,128,129,0
9675,126,129,128,126,128,128,129,128,0
9678,129,126,127,129,126,129,127,124,0
9681,121,129,126,128,129,129,128,126,0
9684,122,128,127,127,129,128,129,129,0
9687,130,129,129,127,130,128,129,128,0
9691,130,127,127,125,128,128,129,128,0
9695,129,126,127,128,126,127,127,126,0
9700,126,127,128,128,126,127,126,128,0
9705,129,129,127,126,128,128,129,129,0
9709,128,127,127,128,126,126,126,127,0
9712,128,126,128,127,124,127,129,127,0
9716,121,129,127,128,127,128,127,128,0
9719,122,130,127,126,129,128,128,128,0
9722,131,127,127,125,130,128,128,128,0
9725,131,126,128,128,126,127,127,127,0
9729,128,127,129,127,128,128,126,128,0
9732,130,129,129,128,128,127,127,129,0
9735,126,127,127,127,128,127,129,125,0
9739,121,128,126,128,127,129,127,127,0
9742,121,127,128,128,128,128,127,128,0
9744,129,129,131,128,129,127,126,127,0
9749,130,128,130,126,128,126,127,128,0
9752,129,127,129,127,129,126,126,127,0
9754,125,126,126,127,127,128,129,128,0
9758,129,129,129,128,127,128,127,128,0
9760,126,128,128,128,129,127,128,127,0
9764,122,129,126,128,127,128,127,126,0
9768,121,127,126,127,128,128,127,128,0
9771,132,130,128,126,128,126,126,128,0
9773,130,128,129,128,129,127,128,128,0
9776,131,127,127,128,128,127,126,127,0
9779,126,126,128,129,127,128,126,127,0
9782,128,129,130,129,128,126,127,129,0
9785,128,127,127,128,128,127,128,129,0
9789,128,123,128,127,131,127,127,126,0
9792,122,127,126,128,127,128,127,128,0
9795,130,129,127,128,128,128,129,128,0
9800,131,128,128,127,126,127,125,127,0
9805,129,127,127,126,129,128,128,128,0
9808,127,124,127,128,129,128,129,129,0
9811,128,128,128,128,128,127,127,127,0
9814,129,129,127,127,125,128,128,126,0
9818,122,129,126,129,127,128,126,126,0
9822,123,128,126,128,127,126,127,128,0
9825,132,129,129,128,129,128,127,127,0
9828,130,129,126,126,129,128,131,128,0
9831,129,126,128,127,125,127,127,127,0
9834,128,127,130,127,129,127,127,128,0
9836,129,128,127,127,128,126,126,128,0
9839,128,129,129,128,127,126,126,127,0
9842,128,127,128,127,129,128,128,127,0
9845,128,127,127,128,128,129,127,127,0
9850,121,129,126,128,127,128,127,127,0
9854,124,129,128,127,127,127,126,127,0
9858,128,127,127,127,128,127,127,127,0
9861,131,126,127,128,128,127,125,128,0
9865,128,129,129,127,127,127,126,128,0
9868,129,129,129,127,129,128,129,129,0
9872,125,127,127,128,128,129,128,127,0
9874,123,128,126,127,130,128,126,127,0
9877,129,127,130,126,129,127,127,128,0
9881,131,128,126,125,128,128,127,128,0
9884,131,126,127,126,129,128,129,128,0
9888,129,125,126,127,126,128,129,128,0
9891,130,127,129,128,124,126,127,128,0
9894,129,129,128,128,128,127,128,129,0
9898,128,127,128,127,128,127,128,125,0
9901,122,128,127,127,127,128,127,125,0
9905,123,127,127,128,129,128,128,129,0
9912,130,128,127,127,129,128,129,128,0
9916,130,127,127,127,130,128,128,128,0
9919,128,124,128,126,127,127,127,127,0
9921,127,127,127,128,128,128,128,128,0
9924,128,128,127,128,128,126,126,127,0
9928,129,128,130,128,124,128,127,126,0
9932,129,127,128,129,126,127,127,126,0
9934,121,128,126,128,128,128,128,127,0
9937,123,130,127,127,126,127,127,128,0
9941,132,128,127,128,129,125,126,127,0
9943,127,127,127,128,129,128,129,128,0
9946,129,126,127,126,129,128,128,128,0
9949,131,129,127,127,125,127,129,128,0
9952,130,128,129,128,126,127,128,128,0
9955,127,125,126,128,125,127,129,127,0
9959,126,125,126,127,127,127,127,129,0
9962,129,128,127,128,128,127,127,128,0
9965,130,128,127,128,129,128,127,127,0
9968,122,129,126,128,127,128,127,125,0
9971,121,128,126,127,128,129,127,126,0
9975,124,127,127,125,128,130,131,129,0
9979,132,128,127,127,131,129,130,128,0
9981,130,126,128,128,127,127,126,127,0
9984,127,125,129,127,127,126,126,128,0
9987,130,129,131,126,129,127,127,128,0
9990,131,127,126,126,128,127,128,129,0
9992,128,127,129,128,125,125,127,125,0
9996,126,126,127,127,129,127,127,128,0
9999,130,128,127,128,126,127,128,128,0
10003,130,129,129,128,124,127,129,129,0
10014,129,128,127,128,128,130,128,126,0
10018,119,129,125,128,127,127,126,127,0
10020,129,128,128,127,127,127,126,128,0
10024,131,129,128,126,128,126,127,127,0
10026,130,127,129,128,125,126,128,127,0
10029,127,127,128,129,126,128,126,128,0
10032,131,128,127,125,129,128,128,128,0
10035,130,128,128,128,127,126,126,127,0
10044,128,128,129,129,127,128,127,126,0
10050,122,128,125,129,127,128,127,127,0
10053,123,126,127,127,131,128,127,129,0
10057,131,129,129,128,128,127,128,128,0
10060,131,127,127,128,129,127,127,128,0
10064,127,126,126,129,129,126,127,128,0
10068,128,128,127,127,126,127,129,129,0
10071,128,128,127,127,127,128,128,129,0
10075,123,126,127,128,127,127,128,125,0
10078,121,128,127,128,127,129,127,126,0
10082,122,128,128,128,125,128,127,129,0
10084,131,129,128,127,127,127,127,128,0
10089,131,128,130,127,130,128,129,128,0
10093,129,124,128,126,128,127,128,127,0
10097,126,127,128,127,129,128,127,128,0
10100,129,128,126,126,129,127,126,128,0
10103,129,127,129,129,126,128,127,126,0
10106,122,129,126,127,127,128,128,127,0
10110,124,126,128,127,127,127,127,129,0
10113,131,130,131,128,128,127,126,128,0
10117,129,128,130,128,127,125,126,127,0
10121,128,127,127,128,127,126,127,127,0
10126,129,126,129,128,129,128,127,129,0
10131,128,128,127,126,129,127,129,129,0
10137,124,128,129,128,127,126,126,127,0
10141,127,127,128,128,126,128,128,123,0
10144,120,131,125,127,128,128,128,127,0
10149,124,126,130,128,128,127,127,128,0
10152,130,128,127,128,128,128,127,128,0
10159,129,126,126,128,129,127,126,127,0
10163,129,125,126,127,128,126,128,129,0
10167,130,129,127,127,128,128,127,128,0
10172,129,129,128,128,126,127,128,127,0
10178,128,127,128,129,128,128,126,126,0
10181,122,128,126,127,128,128,127,128,0
10184,128,129,127,128,128,128,127,128,0
10188,132,129,130,128,131,128,129,128,0
10191,131,125,126,128,131,128,129,128,0
10195,128,125,126,128,127,126,127,128,0
10198,128,130,128,128,126,126,125,128,0
10208,128,128,129,128,126,126,127,127,0
10212,127,125,128,127,128,129,127,126,0
10215,121,128,125,128,127,129,127,127,0
10218,126,130,129,128,129,128,129,129,0
10221,131,127,128,127,127,127,127,126,0
10225,125,127,129,128,124,130,127,126,0
10228,121,127,125,128,127,129,127,127,0
10231,130,128,127,127,128,128,131,129,0
10234,131,128,127,127,128,128,127,128,0
10238,130,127,130,128,127,127,126,127,0
10242,130,125,129,128,128,126,127,127,0
10260,128,128,128,128,128,128,129,129,0
10264,129,128,128,128,127,126,127,128,0
10269,128,128,128,129,127,128,127,125,0
10273,121,128,125,127,128,128,127,127,0
10276,123,128,128,127,130,128,129,128,0
10280,131,129,127,127,126,127,128,128,0
10283,131,128,128,128,127,128,126,127,0
10286,129,127,129,128,128,127,128,129,0
10290,131,127,126,127,127,128,127,128,0
10293,129,129,129,128,125,127,127,127,0
10297,128,127,127,128,127,129,126,126,0
10300,121,128,125,129,127,129,127,127,0
10303,124,129,128,128,128,127,126,127,0
10307,130,129,130,128,129,127,129,128,0
10311,131,126,127,128,129,128,130,127,0
10314,130,127,127,128,126,128,128,126,0
10318,122,129,127,128,127,126,130,128,0
10321,131,129,126,127,129,128,131,128,0
10324,130,126,126,127,128,128,128,127,0
10328,131,125,129,128,127,126,126,127,0
10331,128,128,130,126,127,126,127,128,0
10334,128,129,129,127,126,127,126,127,0
10337,128,128,128,129,126,128,126,125,0
10342,123,127,125,129,127,128,127,126,0
10351,122,128,126,129,126,126,127,129,0
10354,132,129,127,127,128,128,127,128,0
10357,129,128,128,127,126,127,127,127,0
10360,131,127,127,128,129,127,126,128,0
10364,128,127,128,127,126,127,126,128,0
10369,128,129,129,128,128,128,128,129,0
10375,130,128,129,128,125,128,127,126,0
10381,122,129,126,128,128,129,128,126,0
10384,122,128,126,128,127,127,130,129,0
10387,133,129,128,126,128,128,130,128,0
10391,131,128,127,127,127,127,128,127,0
10394,131,126,128,127,128,126,126,127,0
10397,126,127,129,128,127,127,126,128,0
10401,129,130,131,128,128,127,126,127,0
10404,127,127,127,126,128,128,127,129,0
10407,121,126,127,127,126,128,127,126,0
10410,121,127,126,127,127,127,131,129,0
10414,131,128,127,128,127,128,128,128,0
10418,130,128,128,128,127,126,126,127,0
10421,128,125,127,128,127,126,126,127,0
10424,129,125,127,127,126,128,129,129,0
10428,129,128,128,128,127,127,127,127,0
10431,122,129,127,128,126,128,127,125,0
10434,124,126,128,128,129,126,126,127,0
10437,129,125,129,128,126,128,128,129,0
10440,130,129,128,128,129,127,127,128,0
10443,126,129,130,127,129,128,128,128,0
10445,130,124,128,127,129,128,126,127,0
10449,126,127,128,129,127,127,126,128,0
10464,129,128,128,129,128,127,128,128,0
10467,127,128,126,128,128,128,128,127,0
10473,121,129,125,128,128,130,128,125,0
10477,122,128,126,128,126,126,126,127,0
10483,131,129,129,126,128,127,126,128,0
10486,130,129,129,127,131,128,131,129,0
10490,130,126,127,128,128,128,131,127,0
10494,128,127,128,128,127,127,126,127,0
10499,127,129,129,127,127,127,128,128,0
10503,130,128,128,127,128,127,127,128,0
10506,126,129,127,129,128,128,127,126,0
10509,122,127,126,127,129,128,127,127,0
10512,131,129,128,127,130,128,128,128,0
10516,131,129,127,128,130,126,127,128,0
10519,126,126,130,128,129,128,128,128,0
10522,128,124,127,128,126,128,128,127,0
10535,128,127,127,127,127,127,127,128,0
10539,128,130,128,127,128,126,129,127,0
10543,122,129,126,127,128,128,127,126,0
10547,123,129,126,128,128,127,127,128,0
10550,130,128,129,128,129,128,128,128,0
10553,131,129,126,126,128,129,130,129,0
10557,126,128,127,128,131,127,127,128,0
10559,125,126,127,128,129,128,127,127,0
10562,130,127,126,127,127,126,126,128,0
10565,128,129,129,128,127,126,126,128,0
10579,128,129,128,127,125,127,125,127,0
10583,126,125,127,129,126,129,125,126,0
10588,121,129,127,129,127,128,127,128,0
10592,132,129,127,129,129,129,129,128,0
10595,131,127,128,125,129,125,126,127,0
10598,131,124,128,128,127,126,127,126,0
10602,127,127,129,127,126,127,126,128,0
10605,129,130,129,127,127,127,126,128,0
10608,128,128,128,128,127,128,129,127,0
10611,121,129,127,128,127,129,128,126,0
10615,122,129,127,127,126,126,127,128,0
10622,129,130,131,127,130,127,127,128,0
10627,131,127,127,128,130,127,127,127,0
10631,129,126,127,128,126,128,128,128,0
10634,120,126,128,127,128,128,128,129,0
10637,128,129,129,127,126,127,126,127,0
10640,128,129,129,128,124,127,127,128,0
10646,130,127,125,129,127,128,127,126,0
10650,122,128,127,128,126,126,128,129,0
10653,130,129,128,126,127,128,127,127,0
10656,129,128,129,127,129,127,127,127,0
10660,128,126,127,126,128,128,127,128,0
10663,124,128,130,127,128,127,127,128,0
10666,128,130,129,128,129,126,128,129,0
10669,131,127,127,128,127,128,128,128,0
10672,123,128,127,128,127,129,127,126,0
10676,121,128,126,128,128,128,128,129,0
10683,132,128,127,128,129,128,129,128,0
10687,132,127,127,127,126,129,128,128,0
10691,130,126,127,127,127,127,127,127,0
10694,130,127,128,128,126,128,127,128,0
10697,130,129,128,128,126,126,126,129,0
10700,127,129,129,129,128,126,127,127,0
10704,131,128,127,128,128,128,127,127,0
10707,121,128,126,128,127,128,128,128,0
10711,123,130,130,126,128,128,128,128,0
10714,132,127,127,127,131,130,129,129,0
10717,131,125,126,125,131,130,128,128,0
10722,130,125,126,127,127,128,128,129,0
10727,128,128,128,128,127,127,126,128,0
10730,131,128,127,127,127,127,129,128,0
10734,127,126,127,128,125,127,127,126,0
10741,121,128,126,128,126,128,127,127,0
10745,123,127,128,127,127,127,128,128,0
10748,131,129,129,128,127,126,126,127,0
10752,130,126,128,128,126,127,126,126,0
10763,128,126,126,128,130,126,127,127,0
10766,128,128,127,126,129,128,129,128,0
10770,127,127,129,129,128,126,126,127,0
10775,128,125,128,126,129,128,126,127,0
10778,127,127,126,126,127,128,127,126,0
10803,122,129,127,128,127,127,127,128,0
10807,132,130,127,127,127,127,125,127,0
10811,131,128,128,128,127,127,126,126,0
10815,130,127,128,128,125,128,127,127,0
10819,127,129,129,128,129,127,127,128,0
10822,129,128,127,127,129,127,129,129,0
10826,129,126,128,128,128,128,129,127,0
10830,129,126,128,128,126,128,128,128,0
10833,128,126,127,128,126,126,126,128,0
10836,128,127,127,128,128,127,128,128,0
10840,126,127,128,129,128,131,128,123,0
10844,120,129,124,128,128,129,127,126,0
10847,122,129,126,127,127,127,128,128,0
10851,131,129,128,126,128,128,128,128,0
10854,129,127,127,128,130,129,131,128,0
10858,131,126,127,127,130,130,128,128,0
10861,129,126,126,128,131,128,128,128,0
10864,128,129,129,128,126,127,128,127,0
10868,128,128,128,128,127,127,127,128,0
10876,123,128,130,129,128,127,126,129,0
10871,129,126,127,128,126,126,127,128,0
10880,128,127,127,128,128,128,129,129,0
10884,122,127,128,128,127,127,127,128,0
10888,125,128,128,129,126,129,128,125,0
10891,118,129,126,128,127,128,127,127,0
10894,128,129,127,128,131,127,129,129,0
10898,131,127,127,125,128,128,130,128,0
10901,129,126,127,128,126,128,131,128,0
10904,129,125,126,127,127,127,128,128,0
10907,129,128,129,127,126,126,126,128,0
10911,128,128,129,128,129,126,127,126,0
10914,121,128,126,127,128,128,127,126,0
10960,121,129,126,128,126,126,130,128,0
10969,127,129,129,125,129,128,129,128,0
10977,130,127,128,127,128,127,126,127,0
10980,128,127,128,126,129,127,126,126,0
10984,127,125,128,128,125,128,131,129,0
10987,127,129,127,127,128,127,127,128,0
11028,129,129,128,128,126,127,126,127,0
11037,129,128,128,128,124,130,128,127,0
11047,121,128,126,128,127,128,127,127,0
11055,123,125,130,128,129,129,130,128,0
11061,131,129,129,127,126,128,129,128,0
11095,131,126,129,127,129,128,129,127,0
11102,129,127,127,127,129,126,127,129,0
11108,129,128,128,128,127,127,126,128,0
11164,131,129,131,128,127,126,126,128,0
11176,130,127,127,129,126,128,126,125,0
11184,122,128,127,128,126,127,127,128,0
11191,131,127,126,126,128,127,127,129,0
11197,131,129,128,127,131,129,129,127,0
11302,131,127,127,128,127,127,127,127,0
11316,128,126,128,127,126,128,125,128,0
11326,129,127,128,128,127,128,127,129,0
11366,130,128,128,128,127,126,125,128,0
11377,129,127,126,128,127,128,126,126,0
11398,122,129,126,127,128,127,126,127,0
11408,124,127,128,128,129,127,127,127,0
11415,130,129,128,128,129,128,128,128,0
11419,132,127,127,126,128,128,130,128,0
11424,129,125,127,128,125,127,127,128,0
11428,127,126,128,127,127,129,129,130,0
11431,130,128,127,127,127,127,126,129,0
11434,130,126,127,127,128,128,127,126,0
11438,122,128,126,128,128,128,127,126,0
11441,122,127,127,128,127,126,131,130,0
11444,131,129,127,126,126,128,131,129,0
11447,131,127,128,127,127,126,126,127,0
11450,130,127,130,129,127,127,128,127,0
11453,130,127,129,128,127,127,126,128,0
11457,129,130,130,126,127,127,127,128,0
11460,130,127,128,127,126,128,127,128,0
11463,130,125,126,128,127,127,127,126,0
11467,121,129,126,129,127,129,127,126,0
11470,130,128,127,127,129,128,128,128,0
11474,130,129,128,125,124,128,128,127,0
11481,129,124,128,129,130,129,126,128,0
11485,127,128,129,127,129,128,128,129,0
11489,129,129,128,128,126,128,127,128,0
11492,130,128,128,126,129,127,127,127,0
11496,122,128,127,128,128,129,128,125,0
11499,122,128,125,128,128,127,127,128,0
11502,129,130,129,127,128,127,127,127,0
11506,131,129,128,128,128,126,127,126,0
11509,130,127,130,126,129,127,129,128,0
11512,125,126,127,126,129,128,129,129,0
11516,128,129,128,127,126,127,127,127,0
11519,127,129,129,128,129,129,128,126,0
11523,120,129,125,127,128,128,126,126,0
11526,122,128,126,128,127,126,126,127,0
11528,132,128,129,126,129,127,127,128,0
11531,132,129,130,126,128,127,126,127,0
11534,130,127,127,127,129,126,126,128,0
11538,128,127,128,128,126,126,127,128,0
11541,128,130,130,126,127,127,127,128,0
11544,126,128,128,127,128,128,126,128,0
11547,127,127,130,129,127,126,126,127,0
11551,121,124,127,127,128,128,128,128,0
11554,126,128,127,126,128,128,129,129,0
11558,131,128,129,127,127,128,126,127,0
11561,127,127,128,129,128,129,127,125,0
11566,121,128,126,128,128,130,127,126,0
11570,122,130,128,128,128,127,126,128,0
11574,132,129,129,128,130,128,131,128,0
11633,128,126,126,126,128,126,127,128,0
11645,128,126,128,126,130,126,127,127,0
11654,130,128,127,128,129,127,127,129,0
11660,128,128,126,126,132,127,129,129,0
11668,129,126,127,128,127,128,127,126,0
11673,122,127,126,128,127,128,127,127,0
11676,123,126,126,126,130,128,128,129,0
11680,130,128,127,127,128,127,128,128,0
11685,131,127,128,127,125,127,127,127,0
11689,130,125,128,127,127,127,126,128,0
11692,128,127,128,128,128,127,127,129,0
11696,130,128,127,128,129,128,126,128,0
11699,131,127,128,128,128,126,128,127,0
11703,127,125,127,126,129,127,128,127,0
11706,121,129,126,129,127,128,127,128,0
11710,122,130,127,128,126,128,126,127,0
11713,131,127,128,128,130,128,127,127,0
11716,130,126,126,128,127,126,128,127,0
11720,128,127,127,128,131,128,128,129,0
11723,130,128,127,126,128,128,130,128,0
11726,130,126,127,128,128,130,126,128,0
11730,129,126,127,127,125,127,127,127,0
11733,121,128,125,128,127,128,127,127,0
11736,121,129,128,128,125,128,131,128,0
11740,132,128,127,127,127,127,125,127,0
11743,129,127,131,128,128,127,128,128,0
11745,126,126,126,127,127,129,129,129,0
11749,129,129,128,128,127,128,126,127,0
11752,128,128,128,127,125,126,126,127,0
11755,129,126,127,128,126,127,129,128,0
11759,125,127,127,128,129,126,127,128,0
11765,126,128,127,128,126,128,128,127,0
11769,123,129,126,128,128,128,128,125,0
11775,123,128,126,128,127,127,127,126,0
11780,124,123,127,128,130,128,129,128,0
11784,132,129,129,125,129,128,129,128,0
11787,132,127,127,127,127,127,129,128,0
11790,132,127,127,128,125,126,126,128,0
11794,130,128,129,127,126,128,126,128,0
11797,128,129,130,126,129,127,127,129,0
11800,129,127,128,128,128,127,126,128,0
11803,127,125,127,126,130,127,126,126,0
11806,120,128,126,128,126,128,127,127,0
11808,125,130,128,128,130,128,128,129,0
11811,130,128,126,126,126,128,127,128,0
11814,130,128,128,126,130,127,127,127,0
11817,127,126,126,128,128,128,128,129,0
11820,128,128,129,127,129,127,126,128,0
11824,130,127,127,126,128,127,127,128,0
11827,129,126,128,126,129,128,129,126,0
11836,120,129,125,128,127,128,127,127,0
11839,122,129,128,128,127,128,127,128,0
11843,131,128,127,128,131,128,128,128,0
11847,129,125,127,127,127,127,126,125,0
11850,121,125,127,127,125,127,127,127,0
11853,129,129,130,127,129,127,127,128,0
11857,130,127,128,126,128,129,129,128,0
11860,129,126,127,128,126,129,128,127,0
11863,122,128,126,129,127,129,127,127,0
11866,122,128,128,126,127,128,128,129,0
11870,130,129,128,126,128,127,126,128,0
11873,127,128,130,128,129,126,127,127,0
11877,127,125,128,126,128,128,129,129,0
11882,129,127,128,127,127,127,127,128,0
11888,128,129,128,128,128,125,127,128,0
11893,127,127,129,127,125,127,128,128,0
11896,129,124,128,127,129,129,127,128,0
11898,127,128,128,129,125,128,128,128,0
11903,127,129,127,126,126,129,128,126,0
11906,121,130,127,128,128,129,127,125,0
11910,123,128,126,128,127,127,128,128,0
11913,129,128,129,127,125,128,128,128,0
11917,132,129,127,127,127,128,130,128,0
11920,129,128,128,128,127,127,127,127,0
11923,126,126,127,129,127,127,126,127,0
11927,122,125,128,126,129,128,127,128,0
11930,130,129,127,128,128,127,126,127,0
11933,129,129,127,128,128,130,126,127,0
11937,129,125,129,129,129,128,128,128,0
11939,124,128,128,127,128,128,127,128,0
11942,127,129,127,126,128,128,128,128,0
11945,127,128,128,128,127,126,127,127,0
11948,121,129,126,127,128,128,126,126,0
11951,123,127,128,128,126,129,128,129,0
11956,132,129,128,127,126,128,126,128,0
11959,131,128,128,127,131,128,129,128,0
11963,128,124,127,126,128,128,128,127,0
11967,124,127,129,128,130,128,127,128,0
11971,131,128,128,128,125,127,126,128,0
11974,127,127,128,129,129,126,128,126,0
11979,122,128,126,127,128,128,127,126,0
11992,122,128,126,128,126,126,126,128,0
11999,130,128,129,128,128,128,126,127,0
12002,128,127,131,128,128,126,126,127,0
12007,130,126,128,128,128,127,129,127,0
12012,127,127,127,126,128,128,128,129,0
12016,128,128,127,128,128,128,128,129,0
12019,128,127,127,126,129,127,127,127,0
12023,127,126,127,128,128,128,127,126,0
12026,121,128,126,128,126,126,130,129,0
12029,131,129,128,128,129,127,126,128,0
12032,130,129,129,128,128,127,128,128,0
12036,129,126,127,125,129,128,129,127,0
12039,128,125,127,127,128,128,129,129,0
12042,129,129,127,128,126,126,126,128,0
12047,129,129,129,129,126,126,126,127,0
12050,122,129,126,128,128,128,128,125,0
12052,122,128,126,129,127,126,129,128,0
12055,130,128,126,126,128,128,129,128,0
12059,131,128,127,127,126,127,129,128,0
12062,129,127,130,128,128,127,126,127,0
12066,126,124,128,126,128,127,127,128,0
12069,129,129,128,128,128,127,126,128,0
12073,127,127,127,128,127,127,127,128,0
12078,126,127,129,129,127,129,127,126,0
12081,121,128,127,128,128,128,127,127,0
12084,123,128,128,125,130,128,129,129,0
12088,131,128,128,127,126,128,128,128,0
12091,130,126,128,128,128,126,128,126,0
12094,128,125,128,127,128,127,125,127,0
12097,130,128,128,126,129,127,128,129,0
12100,129,129,128,129,128,126,126,127,0
12103,129,127,126,128,127,128,127,126,0
12106,122,128,127,128,127,128,127,127,0
12111,130,127,128,127,128,128,131,129,0
12116,132,129,128,127,128,126,127,126,0
12120,130,128,130,128,130,127,129,127,0
12124,130,125,128,128,125,127,126,127,0
12127,128,128,130,128,128,127,126,128,0
12130,130,129,127,126,129,126,128,128,0
12133,126,128,129,129,130,125,127,128,0
12137,126,126,127,129,127,129,128,126,0
12140,122,128,127,129,125,128,126,128,0
12143,131,129,130,127,128,127,126,128,0
12146,129,127,128,128,125,127,126,127,0
12149,130,127,129,129,128,128,126,127,0
12153,127,128,128,127,129,127,129,128,0
12156,128,129,128,127,128,126,128,126,0
12158,122,130,126,129,127,128,128,126,0
12161,123,127,126,129,126,128,127,127,0
12164,123,124,127,127,129,128,128,128,0
12167,132,130,131,128,129,127,127,127,0
12170,128,128,127,128,129,128,127,127,0
12174,131,126,126,125,130,128,129,129,0
12177,127,126,127,127,127,128,129,128,0
12179,128,129,129,128,125,126,126,128,0
12182,128,128,129,129,127,128,129,127,0
12185,129,127,126,128,126,128,126,126,0
12188,121,128,128,128,127,129,126,127,0
12191,123,129,130,126,129,129,129,128,0
12194,131,128,127,127,128,127,127,127,0
12198,130,126,128,128,125,127,129,125,0
12201,124,128,129,128,129,128,127,128,0
12205,129,129,128,126,129,125,125,127,0
12212,131,127,127,127,127,127,126,127,0
12218,126,125,126,127,128,128,128,125,0
12221,121,128,125,128,127,128,128,127,0
12224,123,130,126,128,127,128,127,128,0
12227,130,129,131,128,127,127,127,127,0
12230,130,125,127,128,129,128,127,127,0
12234,127,125,126,128,128,127,127,128,0
12237,129,129,129,128,129,127,127,127,0
12240,130,128,127,128,129,128,129,128,0
12243,130,124,128,128,127,126,128,128,0
12246,120,128,126,128,128,128,127,127,0
12251,131,129,130,128,129,127,127,128,0
12253,130,129,129,127,128,127,127,127,0
12257,129,125,127,126,128,129,127,128,0
12259,125,125,127,128,125,127,126,127,0
12263,129,129,129,128,126,126,127,128,0
12266,129,128,129,128,126,127,126,125,0
12269,121,129,126,128,128,128,127,126,0
12272,123,127,125,127,127,128,127,128,0
12275,128,128,127,127,129,126,126,128,0
12279,132,129,128,128,129,127,128,129,0
12282,130,126,126,126,127,128,130,127,0
12292,130,126,128,126,128,128,128,128,0
12295,129,128,128,128,126,126,126,128,0
12299,130,128,129,128,126,127,126,127,0
12302,128,127,126,128,129,127,126,125,0
12305,121,128,127,127,128,129,127,126,0
12309,123,127,127,127,127,128,129,129,0
12312,130,128,128,127,128,128,128,127,0
12317,130,127,127,128,128,127,130,128,0
12321,131,127,128,128,127,127,127,127,0
12328,128,127,129,127,129,128,127,129,0
12332,131,128,128,126,129,127,128,128,0
12336,129,126,127,128,129,126,127,128,0
12339,126,125,128,128,124,127,128,128,0
12342,129,129,128,128,128,127,126,127,0
12346,130,129,128,128,126,127,127,128,0
12350,128,126,128,128,125,127,128,128,0
12353,130,126,128,127,128,131,127,125,0
12357,121,129,127,128,127,127,128,128,0
12359,131,129,127,125,128,127,130,128,0
12362,130,128,129,128,126,126,129,127,0
12366,130,126,128,128,129,126,127,127,0
12369,129,127,128,128,127,127,127,128,0
12372,128,130,127,126,128,128,127,127,0
12375,130,126,129,129,129,129,127,125,0
12378,122,128,126,127,128,128,127,126,0
12381,122,127,128,128,129,128,126,128,0
12384,129,128,128,127,127,127,126,127,0
12389,128,128,128,126,127,128,127,126,0
12392,129,127,130,128,129,126,126,128,0
12397,129,127,129,126,130,127,128,129,0
12400,129,128,127,127,128,128,127,128,0
12403,128,127,127,128,126,129,128,127,0
12406,122,128,126,128,127,128,128,126,0
12409,122,128,126,128,126,127,125,128,0
12412,131,130,130,126,129,127,128,128,0
12416,131,127,127,128,129,128,131,128,0
12420,130,126,128,128,127,126,127,127,0
12424,128,126,128,127,126,128,129,129,0
12428,131,129,127,128,128,128,129,129,0
12432,128,127,127,128,125,128,128,127,0
12438,125,126,127,126,128,126,127,128,0
12442,122,129,127,128,127,128,128,127,0
12449,131,127,127,128,130,128,129,129,0
12446,123,129,130,126,129,128,129,128,0
12452,127,126,127,128,129,128,128,128,0
12457,128,127,126,129,127,127,126,128,0
12460,131,130,130,127,128,128,127,128,0
12463,131,127,126,126,130,128,129,129,0
12466,131,127,128,128,126,126,126,127,0
12470,128,127,128,129,127,127,128,128,0
12473,129,128,128,128,126,127,127,128,0
12476,128,127,126,128,128,127,130,127,0
12479,121,128,126,128,127,129,128,126,0
12481,122,128,126,129,128,127,126,125,0
12484,132,128,127,128,129,128,129,128,0
12488,130,127,127,126,126,128,128,128,0
12491,129,127,128,126,129,127,128,128,0
12494,129,126,126,128,127,126,127,128,0
12497,128,128,129,128,127,127,126,127,0
12501,127,128,129,127,126,127,127,128,0
12504,122,127,128,128,127,127,128,126,0
12509,122,128,125,129,126,127,126,127,0
12512,129,127,127,126,130,128,127,128,0
12516,131,127,127,126,131,128,129,128,0
12520,129,124,126,128,129,128,129,128,0
12523,128,125,126,129,126,128,127,126,0
12525,121,129,126,128,124,128,129,128,0
12530,131,129,127,125,131,128,129,129,0
12533,130,126,127,128,129,127,129,127,0
12537,128,126,126,128,128,128,128,128,0
12542,130,127,128,128,126,127,128,128,0
12548,129,129,129,128,127,127,127,127,0
12551,123,129,127,128,127,128,126,125,0
12555,123,128,127,127,127,128,128,126,0
12558,123,126,127,127,131,129,130,129,0
12560,132,128,127,126,128,128,129,128,0
12564,130,127,129,127,125,127,127,127,0
12567,132,127,128,128,128,126,125,127,0
12570,128,127,128,128,128,128,127,128,0
12573,130,130,130,128,126,127,126,128,0
12576,128,128,129,129,128,126,126,127,0
12579,128,127,128,129,129,126,125,127,0
12581,125,127,128,126,129,127,128,128,0
12584,126,129,129,128,128,126,126,128,0
12595,127,128,128,129,128,129,127,127,0
12600,123,127,126,129,127,128,127,126,0
12603,122,128,127,128,124,128,130,129,0
12606,131,129,127,126,128,128,129,129,0
12609,130,126,127,127,128,128,129,128,0
12613,130,126,127,127,127,126,126,125,0
12617,128,126,126,127,127,128,130,129,0
12620,130,128,127,127,127,127,128,128,0
12624,128,128,129,128,127,126,126,127,0
12626,129,126,127,128,128,128,127,127,0
12629,128,127,128,128,128,127,125,128,0
12633,129,129,128,128,124,128,126,127,0
12636,129,129,128,128,128,129,127,126,0
12638,122,128,126,128,128,128,126,126,0
12641,122,129,125,127,127,128,127,128,0
12645,131,128,127,127,127,128,130,127,0
12649,131,128,127,126,128,128,129,128,0
12653,130,126,126,126,128,128,130,128,0
12659,128,123,128,127,131,128,130,129,0
12663,130,128,127,127,126,128,128,128,0
12667,130,129,129,128,129,126,126,127,0
12670,129,127,129,128,128,126,126,127,0
12674,125,126,127,128,128,128,128,128,0
12677,129,128,128,128,127,128,129,129,0
12680,128,127,128,128,125,128,127,126,0
12683,123,129,126,128,128,130,128,124,0
12686,120,128,126,127,126,128,129,128,0
12690,130,128,127,126,128,128,129,130,0
12693,130,128,129,128,131,128,128,128,0
12696,131,125,126,126,128,128,130,128,0
12700,130,125,129,127,128,128,129,129,0
12703,128,128,127,128,127,127,127,128,0
12706,130,128,128,126,127,128,128,128,0
12709,128,127,129,128,127,127,127,127,0
12712,121,129,126,129,127,129,127,126,0
12715,122,124,127,128,129,128,128,128,0
12718,132,128,127,127,127,128,129,129,0
12722,130,125,126,126,128,128,126,127,0
12725,128,125,128,128,126,126,127,128,0
12728,128,128,129,128,127,127,127,128,0
12731,128,130,128,128,123,126,128,128,0
12735,126,127,129,128,126,126,128,128,0
12738,121,127,125,129,127,129,128,127,0
12742,122,129,126,128,126,127,125,127,0
12745,133,130,128,127,128,127,127,127,0
12748,130,127,128,128,131,128,128,128,0
12756,128,127,127,128,129,127,127,128,0
12751,128,125,128,128,129,127,126,127,0
12761,129,129,127,126,129,127,126,127,0
12767,130,126,127,127,129,128,128,127,0
12771,121,127,125,128,127,129,127,127,0
12774,122,128,127,128,127,128,128,128,0
12777,131,129,127,128,128,126,128,129,0
12780,132,128,129,127,128,127,127,128,0
12782,129,126,129,126,127,127,127,127,0
12785,128,128,129,126,129,127,128,128,0
12789,129,129,128,128,129,128,129,128,0
12792,129,128,128,128,127,128,128,126,0
12795,122,129,125,128,129,130,129,125,0
12798,122,129,127,129,125,129,128,129,0
12801,131,129,127,126,127,127,127,129,0
12804,131,128,129,129,126,127,127,127,0
12808,130,127,127,128,128,127,128,128,0
12813,123,127,128,128,127,126,126,128,0
12818,130,129,130,128,129,128,129,128,0
12821,129,126,127,126,128,128,129,127,0
12824,126,126,127,128,128,128,126,127,0
12828,126,125,126,127,128,128,129,128,0
12831,128,128,128,128,126,128,127,128,0
12834,124,129,127,126,128,128,128,128,0
12836,130,125,127,129,128,129,128,125,0
12839,119,128,127,128,127,127,128,128,0
12843,129,129,127,125,129,128,131,129,0
12847,131,129,128,126,128,127,125,127,0
