Start Recording
7,127,127,127,128,126,127,127,128,0
11,128,130,129,128,129,127,126,127,0
15,128,128,129,128,126,127,126,128,0
22,129,126,128,128,126,127,128,127,0
25,127,128,127,126,124,127,127,126,0
29,122,131,128,128,125,127,127,127,0
32,123,129,128,127,128,128,128,126,0
36,124,129,127,128,130,128,128,126,0
49,130,127,127,127,126,128,127,128,0
53,131,129,127,127,128,127,127,127,0
56,131,128,129,128,128,126,125,128,0
60,130,127,130,127,127,126,130,128,0
63,123,125,127,127,127,127,126,127,0
67,128,130,129,128,127,127,126,128,0
70,128,128,131,128,127,126,127,127,0
73,128,128,127,128,128,127,126,127,0
77,126,126,127,128,129,128,129,128,0
82,127,128,128,129,129,128,128,128,0
87,129,126,127,127,127,126,127,127,0
90,127,126,127,128,127,128,128,123,0
93,119,129,129,128,127,129,127,126,0
97,125,127,126,127,129,129,128,129,0
100,131,128,127,126,129,128,128,128,0
103,129,126,126,128,130,126,127,127,0
107,127,127,128,128,127,127,127,128,0
110,128,129,129,128,128,128,126,128,0
114,130,128,127,126,129,128,128,129,0
123,126,127,129,126,128,128,128,128,0
127,126,126,128,129,126,128,127,128,0
130,127,128,127,128,128,128,128,129,0
134,129,127,126,127,127,127,127,129,0
137,123,127,128,129,127,128,127,126,0
143,122,127,128,128,128,128,127,127,0
146,124,130,128,127,129,128,127,127,0
150,132,129,127,127,129,129,127,128,0
153,130,127,125,127,129,128,129,128,0
156,129,125,126,126,128,127,128,128,0
160,128,127,127,127,126,128,129,129,0
162,130,129,128,128,126,129,126,128,0
165,129,126,128,129,127,128,128,127,0
168,123,128,128,128,127,127,126,128,0
171,130,128,126,127,128,127,126,128,0
174,130,129,128,126,129,127,127,127,0
177,129,128,128,128,129,128,128,128,0
180,128,126,125,126,129,128,130,128,0
183,125,127,127,126,129,128,129,129,0
197,130,128,127,127,128,128,128,129,0
201,126,128,127,127,124,127,128,126,0
204,123,127,127,128,127,127,126,126,0
207,122,128,128,126,129,128,127,127,0
213,130,129,127,127,128,128,126,128,0
217,130,127,128,127,128,125,126,128,0
221,130,127,127,128,127,127,128,128,0
225,126,127,127,128,130,128,129,129,0
229,129,129,128,129,125,127,128,128,0
232,128,127,128,128,124,126,127,127,0
235,128,127,129,128,127,128,127,125,0
237,122,129,128,129,127,127,126,128,0
240,124,126,127,126,129,129,128,129,0
245,131,128,128,127,129,127,126,127,0
249,127,126,127,127,127,126,126,127,0
253,129,128,128,128,126,128,126,128,0
256,128,129,129,128,129,128,128,128,0
261,129,126,127,127,127,128,126,128,0
263,130,126,127,128,129,126,128,126,0
266,121,129,128,128,128,128,127,127,0
270,125,129,127,127,125,128,128,128,0
288,131,127,126,127,128,128,127,127,0
294,129,126,127,126,129,128,129,128,0
298,129,127,126,127,128,128,129,129,0
302,129,128,128,127,126,128,128,128,0
305,130,128,128,128,127,127,126,126,0
309,122,129,128,128,127,128,128,125,0
312,122,128,128,128,128,128,127,128,0
315,130,128,129,127,131,128,128,128,0
320,131,128,126,127,129,128,129,128,0
323,131,127,128,128,127,127,127,127,0
326,128,126,127,126,131,128,129,128,0
329,126,129,128,126,129,128,128,129,0
333,129,127,127,126,129,128,129,127,0
336,128,125,128,129,126,128,127,125,0
351,122,128,128,128,127,126,126,127,0
355,130,129,129,128,129,128,128,128,0
360,130,127,126,127,129,128,129,129,0
366,129,126,126,128,125,127,126,127,0
370,126,126,128,127,125,128,129,128,0
373,128,129,126,128,126,128,127,128,0
377,129,128,126,127,126,128,129,128,0
380,128,126,127,128,129,125,128,126,0
383,123,127,128,129,127,128,128,127,0
386,123,129,128,129,129,128,127,128,0
390,131,128,126,127,128,127,128,128,0
393,130,126,128,129,130,127,129,127,0
396,128,125,127,126,128,128,129,129,0
400,129,128,126,126,130,128,128,128,0
403,129,128,127,127,129,128,129,128,0
406,128,126,126,126,129,126,128,128,0
410,124,127,127,129,128,127,127,126,0
413,123,129,128,128,123,128,128,128,0
416,131,128,126,126,127,128,130,129,0
419,130,127,126,128,129,128,130,128,0
423,126,126,126,125,128,128,126,127,0
428,129,128,128,128,127,126,126,128,0
433,129,130,129,127,128,127,127,128,0
436,126,127,129,128,127,127,127,126,0
438,124,128,127,127,127,128,128,127,0
442,122,129,129,128,129,127,127,128,0
445,131,129,128,128,127,128,126,128,0
448,131,127,128,128,128,126,127,127,0
451,129,126,129,128,129,129,129,128,0
454,127,128,127,128,128,127,127,127,0
457,128,130,129,128,127,127,126,128,0
459,127,127,130,126,125,128,129,126,0
465,123,129,128,128,126,128,128,126,0
469,122,128,127,128,128,128,128,128,0
472,130,129,126,125,128,128,129,128,0
478,129,127,127,127,126,127,128,126,0
482,130,126,127,127,126,127,126,127,0
485,127,127,126,126,130,128,129,129,0
488,129,129,127,126,129,128,128,128,0
500,130,127,127,128,127,127,127,127,0
503,128,128,128,129,127,128,127,126,0
506,123,129,128,128,127,128,129,129,0
509,130,128,127,126,128,129,129,129,0
513,131,128,126,127,127,127,127,127,0
518,130,127,128,126,124,127,129,127,0
521,129,127,130,128,129,126,128,128,0
526,130,128,127,129,129,128,128,128,0
529,127,127,127,128,125,126,126,127,0
539,129,124,127,127,128,128,128,127,0
542,126,127,128,128,130,128,128,128,0
545,128,129,128,128,127,127,128,128,0
549,125,125,129,128,127,129,128,125,0
553,121,129,128,129,128,129,128,125,0
557,124,123,127,128,132,128,128,128,0
561,130,129,127,126,130,128,130,128,0
564,130,128,127,127,129,128,126,127,0
567,128,126,126,128,129,128,129,128,0
570,127,126,126,128,129,128,129,126,0
575,128,129,126,127,126,127,130,129,0
578,129,127,126,127,127,127,128,129,0
581,126,126,127,128,126,126,128,126,0
584,122,128,127,128,127,128,126,127,0
588,123,129,128,127,128,126,126,128,0
591,129,129,130,126,129,128,127,127,0
594,130,124,129,128,124,126,127,128,0
597,129,125,127,128,129,127,128,128,0
611,129,128,128,128,128,130,128,128,0
618,128,127,127,127,128,127,128,128,0
628,129,125,127,129,127,128,127,126,0
631,123,128,128,129,126,126,127,129,0
635,130,128,126,125,129,128,129,128,0
639,130,129,129,128,128,127,127,127,0
642,129,127,127,127,129,130,128,128,0
645,129,125,127,128,129,127,129,128,0
648,126,128,126,128,127,127,126,128,0
651,129,129,128,127,125,127,126,127,0
654,128,127,127,128,128,128,127,126,0
657,120,129,128,129,128,129,128,124,0
660,121,129,129,128,128,127,126,129,0
663,131,129,128,125,128,127,126,128,0
666,131,126,130,128,129,127,128,128,0
669,127,126,126,126,128,127,130,128,0
681,129,127,127,128,126,127,128,128,0
685,128,129,128,127,128,128,127,128,0
689,128,126,127,128,128,127,127,127,0
692,123,126,128,128,127,128,127,127,0
695,122,129,128,129,126,127,126,127,0
699,132,129,128,127,129,128,128,128,0
704,128,127,128,128,128,127,129,127,0
707,128,127,129,128,130,126,127,128,0
711,128,127,126,127,128,128,126,128,0
714,129,127,129,127,128,127,126,127,0
718,127,128,129,128,126,127,126,127,0
721,122,128,128,128,127,128,127,126,0
723,123,128,127,128,129,128,127,128,0
727,129,129,128,128,128,127,126,127,0
730,130,127,129,128,126,128,127,127,0
732,128,125,126,128,129,128,129,128,0
735,129,128,128,128,127,127,126,128,0
738,131,129,127,127,128,127,125,128,0
742,128,127,128,128,127,127,127,127,0
757,130,127,130,128,129,127,127,128,0
760,127,126,126,126,128,129,129,129,0
763,130,129,127,128,125,126,126,128,0
766,129,129,128,128,125,126,128,127,0
769,129,126,127,126,128,128,127,128,0
774,124,126,127,128,124,127,126,127,0
777,128,129,129,128,129,128,128,129,0
781,121,129,127,128,127,126,126,126,0
793,123,129,128,128,127,128,127,126,0
797,123,127,128,127,128,128,126,129,0
801,129,129,128,127,128,126,127,127,0
804,129,129,131,127,128,127,127,126,0
808,128,128,128,126,128,127,127,127,0
810,126,127,126,127,129,128,128,128,0
813,129,129,126,126,129,128,129,129,0
816,130,128,126,127,128,128,129,128,0
820,124,128,127,129,127,127,127,125,0
822,123,128,128,128,128,127,127,127,0
828,129,129,130,128,129,127,127,128,0
832,131,128,128,128,129,127,127,128,0
835,129,127,129,128,129,127,127,127,0
838,126,124,128,128,127,126,125,127,0
841,128,129,128,127,129,127,127,127,0
843,129,128,126,127,127,128,129,129,0
846,129,126,128,127,129,125,128,127,0
849,128,125,128,129,126,128,127,126,0
851,122,129,128,126,129,128,127,128,0
865,130,129,127,126,129,128,128,128,0
869,128,127,127,128,124,128,126,127,0
874,128,125,126,127,126,127,129,127,0
879,127,128,127,128,129,128,129,129,0
884,128,128,125,128,127,127,128,128,0
888,128,127,128,128,125,127,127,127,0
891,124,128,127,129,128,128,127,126,0
893,123,129,129,128,125,127,127,128,0
901,130,129,127,127,128,128,127,127,0
906,129,128,127,128,129,128,127,128,0
909,130,125,128,128,125,128,127,128,0
913,126,128,130,126,129,128,128,128,0
916,130,129,127,127,127,128,127,128,0
921,128,127,129,129,127,128,127,126,0
924,123,128,128,127,128,128,127,127,0
927,131,128,126,126,129,128,128,129,0
930,130,129,130,125,129,128,127,128,0
933,129,127,126,125,128,127,128,129,0
941,128,124,129,128,129,126,128,128,0
948,127,128,129,128,129,128,128,128,0
952,127,130,128,127,128,127,127,128,0
955,130,127,127,127,128,126,128,126,0
959,123,128,129,129,128,128,128,126,0
962,123,128,128,128,124,129,128,128,0
965,128,128,130,127,128,128,126,127,0
969,131,127,128,127,128,127,128,128,0
971,128,126,125,127,126,128,130,127,0
974,129,126,129,128,129,128,127,128,0
977,130,128,127,127,127,128,129,129,0
981,129,126,126,128,127,125,127,127,0
984,122,127,127,128,127,127,127,126,0
987,123,128,127,128,129,128,128,128,0
994,130,128,126,128,129,128,128,128,0
997,130,128,128,126,128,128,129,128,0
1000,131,126,126,127,126,127,127,125,0
1004,124,127,127,128,129,129,128,129,0
1010,129,129,127,128,125,128,126,128,0
1016,128,129,129,128,123,127,127,127,0
1019,123,128,129,128,127,127,127,126,0
1021,123,128,127,129,129,129,128,129,0
1029,129,129,127,126,129,128,129,129,0
1033,131,128,127,127,127,127,128,128,0
1037,130,126,127,127,127,127,127,127,0
1040,128,126,127,128,129,127,128,128,0
1043,130,128,126,128,129,128,128,129,0
1046,129,128,127,127,129,127,129,127,0
1050,126,126,127,129,127,128,126,125,0
1053,122,127,127,129,126,126,129,128,0
1065,130,129,130,128,129,128,128,128,0
1071,130,128,127,128,130,127,128,128,0
1074,126,126,128,126,129,128,128,128,0
1077,127,124,128,128,127,126,126,127,0
1081,128,129,129,128,128,127,127,127,0
1084,128,128,128,128,128,126,128,127,0
1088,130,126,127,128,126,129,126,126,0
1090,122,128,127,128,126,127,126,127,0
1093,123,127,125,126,128,128,128,128,0
1097,131,128,127,127,127,127,126,127,0
1101,130,128,128,128,128,126,126,127,0
1104,129,126,128,129,127,127,126,126,0
1107,123,129,129,128,126,126,130,129,0
1112,131,128,127,127,127,129,129,128,0
1115,130,126,126,127,126,128,127,127,0
1118,130,124,129,128,127,128,128,127,0
1120,128,128,128,126,129,128,128,129,0
1123,128,128,127,127,128,127,128,127,0
1126,130,125,126,128,128,128,129,128,0
1129,126,126,128,129,129,126,126,127,0
1133,128,129,128,128,126,127,126,127,0
1146,129,128,127,127,126,128,128,128,0
1150,126,128,129,128,127,128,127,126,0
1154,124,128,128,128,127,127,128,126,0
1158,124,129,128,128,126,128,128,129,0
1161,131,128,126,125,128,129,129,129,0
1164,129,127,126,127,128,128,129,128,0
1167,128,126,126,127,129,128,130,128,0
1170,129,127,126,126,127,128,128,129,0
1182,129,128,127,127,126,127,127,128,0
1185,129,125,129,128,127,126,126,128,0
1188,124,127,127,128,130,127,129,125,0
1194,122,130,128,129,127,126,128,129,0
1197,129,129,126,126,130,128,129,129,0
1201,131,128,127,126,129,128,128,128,0
1204,128,126,126,128,129,128,128,128,0
1207,126,126,126,127,129,128,127,128,0
1218,128,129,128,128,127,127,127,128,0
1224,127,128,128,128,126,127,127,127,0
1234,121,129,128,129,128,129,128,124,0
1238,121,129,128,129,129,128,128,129,0
1241,131,128,126,128,129,130,129,129,0
1245,131,127,126,125,127,128,128,127,0
1248,128,127,128,127,126,126,127,127,0
1251,129,125,128,126,128,127,126,128,0
1255,128,128,127,129,128,128,128,129,0
1258,127,128,128,127,128,126,127,127,0
1262,123,128,128,129,127,128,127,126,0
1266,122,127,128,128,130,129,128,129,0
1269,131,129,129,127,129,127,127,128,0
1272,130,129,128,128,125,127,127,128,0
1276,129,126,126,127,127,128,129,129,0
1280,129,126,126,127,127,128,126,128,0
1284,128,130,130,128,127,126,126,128,0
1287,129,128,129,128,126,126,126,128,0
1290,129,126,126,128,126,126,129,127,0
1294,129,127,126,128,126,127,127,129,0
1298,127,129,128,128,124,128,126,129,0
1301,128,129,129,127,126,128,127,126,0
1304,121,129,127,128,128,129,128,125,0
1307,123,127,128,129,127,125,130,129,0
1310,132,130,128,127,127,128,128,130,0
1312,130,128,127,127,127,127,128,128,0
1315,131,126,130,126,128,128,129,128,0
1318,129,126,126,126,128,128,130,129,0
1321,128,128,127,128,126,127,127,129,0
1336,128,129,128,128,126,127,127,128,0
1340,127,126,128,129,126,128,129,126,0
1344,123,127,128,128,127,127,128,127,0
1348,124,126,126,125,131,128,128,128,0
1351,130,128,125,125,129,128,129,129,0
1354,130,127,129,128,129,127,129,127,0
1357,128,126,126,128,129,128,129,127,0
1360,129,128,125,128,128,128,128,129,0
1363,128,128,127,127,126,128,127,127,0
1366,128,128,129,128,126,127,127,127,0
1370,125,124,129,128,126,128,125,125,0
1378,123,128,129,128,129,128,127,127,0
1381,129,128,127,126,130,127,125,127,0
1385,129,126,127,129,125,127,126,127,0
1388,130,127,130,127,130,129,127,126,0
1396,130,129,128,127,129,128,124,127,0
1391,122,129,128,128,127,128,124,127,0
1402,128,128,128,128,128,128,125,126,0
1408,129,127,128,128,130,128,126,127,0
1414,128,127,127,127,126,128,126,127,0
1418,128,128,127,128,126,128,128,127,0
1422,128,126,127,129,130,129,126,127,0
1438,123,128,128,128,127,128,126,125,0
1442,122,129,128,128,127,128,125,127,0
1445,128,129,129,128,131,127,128,127,0
1449,128,128,130,126,128,126,127,126,0
1452,127,125,128,128,128,128,128,126,0
1455,127,128,131,128,129,127,126,127,0
1458,126,129,128,128,129,126,126,127,0
1462,126,127,129,128,129,128,127,124,0
1465,123,128,127,127,128,128,128,125,0
1468,123,127,128,128,125,128,128,129,0
1477,130,128,126,128,131,128,128,128,0
1482,130,127,125,126,128,130,129,127,0
1485,130,126,127,127,126,127,127,127,0
1490,125,126,125,128,128,129,129,129,0
1493,129,128,126,128,127,127,127,128,0
1496,128,128,129,128,124,127,128,128,0
1500,123,126,129,128,127,128,127,126,0
1503,122,128,128,129,126,128,126,129,0
1507,129,129,127,128,131,128,127,127,0
1510,131,128,130,128,129,127,126,127,0
1513,127,126,127,128,125,128,131,128,0
1517,130,125,126,127,127,127,129,129,0
1520,129,128,126,127,128,128,129,129,0
1523,126,129,129,128,129,128,128,128,0
1530,129,126,129,128,126,128,128,126,0
1536,123,127,128,129,127,126,127,127,0
1542,131,129,127,127,128,128,129,128,0
1547,131,128,126,127,128,128,127,128,0
1550,129,127,128,128,128,126,128,125,0
1554,125,125,127,127,126,127,130,129,0
1557,129,129,128,127,127,127,127,128,0
1561,128,129,127,127,127,126,128,127,0
1564,127,128,129,128,129,127,129,128,0
1568,128,127,127,129,127,128,127,128,0
1571,123,129,129,129,124,128,129,129,0
1574,129,127,126,127,126,127,128,128,0
1578,131,128,128,127,127,126,128,127,0
1581,126,125,126,126,129,128,130,128,0
1584,130,128,126,127,128,128,129,129,0
1587,129,127,127,128,127,128,130,128,0
1592,122,128,128,129,127,128,128,127,0
1595,124,127,127,128,127,128,128,127,0
1598,130,128,126,127,129,128,130,129,0
1602,131,128,125,127,127,128,128,127,0
1605,128,128,128,127,126,127,128,127,0
1608,126,123,127,127,127,127,126,127,0
1611,130,128,128,128,128,128,126,127,0
1614,130,128,126,128,127,127,127,129,0
1618,124,128,129,128,128,128,127,127,0
1621,126,126,128,129,127,128,128,126,0
1624,123,129,128,128,126,126,130,129,0
1628,131,129,130,128,127,127,127,127,0
1631,128,128,131,128,127,126,127,126,0
1634,126,126,126,127,130,127,127,125,0
1638,122,128,127,128,127,128,126,128,0
1644,130,127,127,127,127,127,129,128,0
1648,129,125,128,128,126,127,126,127,0
1641,130,128,126,127,127,129,130,129,0
1660,130,128,128,127,128,127,127,127,0
1663,128,129,128,128,127,127,127,128,0
1666,125,128,130,129,126,127,127,126,0
1669,123,128,129,128,127,128,128,126,0
1672,122,126,128,128,129,129,129,129,0
1675,131,129,126,127,127,128,128,128,0
1679,131,128,128,128,126,127,126,128,0
1682,128,127,128,128,128,127,127,127,0
1697,128,126,126,126,129,128,129,130,0
1701,128,128,127,127,127,128,128,129,0
1704,129,127,128,128,127,127,128,127,0
1707,123,128,129,129,126,126,127,128,0
1711,130,126,126,126,129,128,131,129,0
1714,131,128,126,128,129,128,129,128,0
1717,129,128,128,128,127,127,127,125,0
1721,125,127,129,128,128,127,126,127,0
1733,127,127,126,127,128,127,127,129,0
1737,129,130,129,128,127,128,127,128,0
1741,128,128,128,128,125,128,128,128,0
1744,129,126,128,129,127,128,128,126,0
1748,123,128,128,128,128,128,127,129,0
1751,129,130,130,127,128,128,126,128,0
1754,131,128,128,128,129,127,126,127,0
1758,130,126,128,127,124,128,128,128,0
1761,127,127,127,128,126,128,126,128,0
1764,129,129,128,126,130,127,128,127,0
1769,128,128,127,128,129,129,126,127,0
1775,127,125,128,128,127,128,128,125,0
1778,123,128,127,129,127,128,128,127,0
1782,129,129,127,125,128,128,130,129,0
1788,131,128,126,127,131,128,129,129,0
1792,131,126,126,127,127,126,127,127,0
1795,127,124,127,127,126,127,126,127,0
1798,128,129,129,128,128,127,127,128,0
1801,127,129,128,127,127,128,127,127,0
1806,127,126,126,128,126,127,127,125,0
1810,122,128,128,128,127,128,128,126,0
1813,123,125,128,127,131,129,129,128,0
1817,131,128,126,127,128,128,127,127,0
1820,129,126,127,128,129,125,127,127,0
1826,128,127,129,128,131,127,128,128,0
1829,128,127,126,128,129,128,129,129,0
1837,128,128,126,128,127,128,128,128,0
1843,128,127,129,129,129,126,128,127,0
1854,128,127,126,127,128,128,130,129,0
1847,124,128,128,128,127,127,127,125,0
1864,131,126,127,127,126,127,129,128,0
1871,128,126,128,127,128,129,127,127,0
1860,131,129,126,127,127,128,127,127,0
1875,124,129,128,127,129,128,127,128,0
1879,130,128,129,128,129,127,128,128,0
1888,130,126,126,126,127,127,128,127,0
1891,131,127,128,126,127,127,128,128,0
1895,129,127,128,129,129,128,128,129,0
1900,130,129,126,128,126,127,127,129,0
1904,129,126,126,128,126,127,128,128,0
1907,123,128,127,129,127,128,128,126,0
1911,123,129,127,128,126,128,129,128,0
1914,130,129,128,127,127,128,126,128,0
1917,130,127,126,128,128,128,127,128,0
1921,131,127,127,127,129,128,129,127,0
1925,127,128,128,127,128,127,127,128,0
1931,127,129,129,127,128,128,128,129,0
1934,129,127,127,128,123,128,128,126,0
1938,122,128,128,129,127,127,127,126,0
1941,122,128,128,129,127,128,126,129,0
1945,130,128,127,126,128,128,128,128,0
1949,130,127,126,125,127,128,128,128,0
1952,130,127,128,125,129,126,127,128,0
1956,127,127,129,128,128,128,126,128,0
1959,128,129,128,126,129,126,127,128,0
1962,129,127,127,128,123,128,127,128,0
1966,122,129,128,129,126,127,127,126,0
1970,123,128,127,128,129,127,126,127,0
1975,129,129,127,126,127,128,126,128,0
1979,130,128,128,127,125,127,126,127,0
1982,128,126,127,128,127,126,126,127,0
1986,130,127,128,128,129,128,127,128,0
1990,127,128,126,127,127,128,129,128,0
1993,129,128,127,128,124,128,128,126,0
1997,122,128,128,129,127,128,128,126,0
2001,122,128,128,128,127,127,126,128,0
2004,129,129,130,126,129,128,127,128,0
2008,129,128,127,127,127,127,127,128,0
2012,129,127,129,126,126,127,128,125,0
2016,121,124,130,128,127,127,127,127,0
2020,128,130,128,128,128,127,128,128,0
2023,130,128,127,126,128,128,129,129,0
2026,128,127,128,128,127,127,126,125,0
2030,123,127,129,128,127,126,128,128,0
2033,130,128,127,126,129,129,127,129,0
2037,129,129,129,128,128,128,127,127,0
2042,126,127,129,128,129,127,128,128,0
2048,128,125,127,127,127,127,128,128,0
2052,128,128,129,128,128,129,126,128,0
2058,130,128,126,128,127,128,128,129,0
2062,129,125,127,128,126,127,128,127,0
2066,122,128,128,127,127,128,128,126,0
2070,123,129,128,126,131,128,127,128,0
2074,129,129,127,127,129,129,129,128,0
2077,130,126,127,128,129,126,129,128,0
2080,129,124,128,128,127,127,129,129,0
2084,129,127,126,127,127,127,128,129,0
2087,129,129,128,127,125,127,126,127,0
2090,129,126,129,128,127,127,127,126,0
2093,123,127,127,128,128,128,127,126,0
2096,124,128,128,125,129,127,127,128,0
2101,130,129,129,128,128,127,128,128,0
2105,130,128,127,128,129,128,127,127,0
2108,130,125,125,128,128,129,130,129,0
2113,128,128,126,127,127,128,128,128,0
2117,130,129,127,127,127,128,129,128,0
2121,129,127,126,127,126,127,128,127,0
2124,128,125,126,128,127,127,128,128,0
2128,128,127,127,128,128,128,127,127,0
2134,126,129,129,129,128,127,126,128,0
2137,129,128,131,129,127,129,127,124,0
2140,122,129,128,128,126,127,127,125,0
2144,123,128,127,127,129,128,129,129,0
2147,129,129,126,126,127,128,129,128,0
2156,132,128,127,127,126,126,126,128,0
2160,129,126,128,127,127,128,128,128,0
2163,128,127,127,128,131,128,129,129,0
2168,130,129,126,127,128,127,129,129,0
2173,127,126,127,128,125,128,128,127,0
2178,127,127,128,128,127,127,130,125,0
2182,124,127,128,129,128,128,127,127,0
2185,123,129,130,126,129,129,129,128,0
2188,131,127,127,126,131,128,129,128,0
2192,126,127,127,126,129,128,130,125,0
2195,127,127,126,126,129,128,129,129,0
2237,129,129,127,127,126,126,126,127,0
2242,129,128,129,128,125,127,127,128,0
2247,129,125,127,128,126,128,127,126,0
2251,123,128,129,128,126,128,127,128,0
2255,129,130,130,127,128,126,127,128,0
2305,130,129,129,128,127,127,128,128,0
2314,130,126,126,127,127,126,130,126,0
2321,122,128,129,128,127,128,127,127,0
2326,127,129,129,127,128,127,126,128,0
2330,130,128,127,128,131,128,129,128,0
2374,130,127,128,127,130,128,128,128,0
2384,122,125,126,127,128,128,127,128,0
2391,128,129,127,128,129,128,128,128,0
2452,123,128,127,128,127,128,127,126,0
2441,129,128,128,126,129,127,126,127,0
2457,123,127,128,127,127,128,127,127,0
2460,126,129,129,125,131,128,129,129,0
2469,130,128,127,128,128,128,127,128,0
2506,129,126,130,127,128,129,128,128,0
2514,130,126,126,128,126,128,128,128,0
2521,130,127,127,128,126,128,129,129,0
2578,130,128,126,127,126,127,127,128,0
2588,128,127,128,128,129,129,127,127,0
2598,129,126,127,129,127,127,127,126,0
2607,122,127,126,127,128,128,128,128,0
2613,130,129,129,128,127,127,126,128,0
2618,128,127,127,128,125,127,128,127,0
2622,123,128,127,128,127,127,127,127,0
2626,128,128,129,125,129,128,128,128,0
2630,130,129,127,128,129,128,128,129,0
2633,131,127,125,127,128,128,128,127,0
2636,128,126,126,128,125,128,126,127,0
2640,128,129,129,128,128,128,127,128,0
2643,130,128,126,128,127,128,128,129,0
2647,128,127,130,129,126,127,128,127,0
2650,123,128,129,128,127,127,127,126,0
2653,123,129,128,128,129,128,129,129,0
2656,130,129,125,127,129,128,129,129,0
2660,130,126,125,127,128,130,127,128,0
2663,129,125,124,126,128,128,130,128,0
2668,129,128,126,127,127,128,129,129,0
2671,129,129,128,128,126,127,126,127,0
2674,128,128,129,129,126,128,128,126,0
2677,123,128,127,129,127,128,127,126,0
2681,123,127,127,127,129,129,128,129,0
2684,130,129,128,127,128,128,126,127,0
2690,130,128,129,128,128,127,127,127,0
2696,128,126,127,128,129,128,128,128,0
2699,129,126,126,127,128,128,129,129,0
2702,129,128,127,128,127,127,127,128,0
2705,128,128,129,128,124,127,127,127,0
2708,123,128,128,127,126,128,127,126,0
2712,122,129,129,128,127,126,128,129,0
2715,130,129,127,120,128,130,129,128,0
2719,130,127,126,122,127,128,129,128,0
2722,130,127,127,122,129,127,127,126,0
2725,128,126,128,123,129,127,127,129,0
2729,129,128,128,124,128,128,128,128,0
2732,128,128,128,125,127,128,125,127,0
2737,122,128,128,127,127,128,128,125,0
2741,123,127,129,128,126,126,127,128,0
2744,129,130,129,127,127,128,126,128,0
2747,131,128,127,128,126,127,126,128,0
2751,131,127,129,127,128,127,128,128,0
2754,127,126,126,129,125,128,126,127,0
2758,127,129,129,129,127,126,126,127,0
2761,127,128,129,129,124,128,128,128,0
2766,128,127,127,129,124,127,128,127,0
2769,125,127,130,131,127,128,126,126,0
2777,123,130,129,129,127,127,127,127,0
2781,123,129,129,129,128,128,127,127,0
2785,131,125,127,127,129,128,127,127,0
2844,128,125,129,129,129,128,127,128,0
2853,129,129,129,127,129,128,129,129,0
2860,131,128,126,129,127,127,127,127,0
2864,130,127,126,127,128,128,129,128,0
2869,124,127,128,128,128,127,128,128,0
2872,128,128,126,128,128,128,129,129,0
2876,130,129,127,129,128,128,128,127,0
2879,127,126,126,128,125,128,127,127,0
2884,122,127,127,129,127,127,126,126,0
2887,122,129,129,130,126,126,126,128,0
2891,131,129,129,126,129,128,128,127,0
2894,129,126,129,128,128,128,129,128,0
2897,128,124,125,128,129,128,129,129,0
2901,130,127,127,128,127,128,129,129,0
2904,129,128,129,128,128,126,127,127,0
2907,125,127,129,129,127,128,127,126,0
2910,123,127,127,129,127,128,127,126,0
2914,123,129,127,128,128,128,127,128,0
2918,129,129,126,128,128,128,126,128,0
2922,130,127,126,125,129,127,130,128,0
2925,131,126,128,128,127,127,126,127,0
2930,128,128,130,128,126,128,125,128,0
2933,129,129,129,127,129,126,128,128,0
2936,125,127,129,128,128,128,127,126,0
2940,123,128,128,128,127,128,128,126,0
2943,123,128,128,126,131,128,127,128,0
2946,129,129,128,126,128,127,127,127,0
2950,129,127,127,126,128,128,128,128,0
2953,128,123,129,129,128,128,129,128,0
2957,129,126,126,127,127,127,127,128,0
2962,128,129,128,129,125,127,126,127,0
2967,128,128,128,128,127,128,128,126,0
2970,123,128,127,129,126,128,128,126,0
2973,123,128,129,128,124,129,129,128,0
2981,130,128,127,127,128,127,128,129,0
2984,131,128,128,128,127,125,126,127,0
2991,128,128,128,128,127,128,127,127,0
2988,128,125,128,127,125,127,126,127,0
2994,128,130,129,128,129,127,126,128,0
2997,127,127,128,126,129,126,127,127,0
3001,129,127,128,128,129,126,127,127,0
3004,128,126,127,128,128,128,128,128,0
3008,129,127,127,126,128,127,127,128,0
3011,129,128,129,129,127,129,128,124,0
3014,123,129,127,128,128,129,128,124,0
3018,124,127,128,127,128,130,130,129,0
3021,131,129,127,127,127,129,127,129,0
3024,132,128,126,126,128,127,128,126,0
3026,129,126,127,128,126,127,128,127,0
3029,126,126,127,127,131,127,127,129,0
3047,131,129,128,126,129,128,127,128,0
3052,130,127,127,126,129,127,128,127,0
3057,127,127,127,127,123,128,128,126,0
3061,122,128,128,129,127,128,128,126,0
3068,123,127,127,126,129,129,126,128,0
3074,129,128,127,128,129,127,128,127,0
3078,125,127,129,128,129,128,129,127,0
3083,131,127,127,127,126,127,127,127,0
3090,129,129,128,126,129,129,129,128,0
3096,129,128,127,126,128,127,127,128,0
3100,127,126,129,129,127,127,127,125,0
3103,122,128,128,128,127,127,126,127,0
3106,129,129,126,128,129,128,127,128,0
3110,130,128,125,125,128,129,128,129,0
3115,125,126,128,127,126,127,126,127,0
3119,127,126,128,128,127,128,128,127,0
3122,125,128,127,127,128,127,127,129,0
3125,131,129,127,127,126,128,128,128,0
3129,131,127,128,128,125,127,127,127,0
3159,128,124,126,127,126,128,126,128,0
3163,128,129,128,126,129,129,128,129,0
3167,128,128,127,127,129,127,128,128,0
3170,124,125,129,130,126,128,127,126,0
3174,123,128,127,127,127,127,127,127,0
3177,124,128,127,127,128,128,127,128,0
3181,129,129,130,126,129,128,126,128,0
3184,129,126,127,128,125,126,128,128,0
3188,131,125,128,128,128,129,130,128,0
3191,130,129,127,127,127,127,127,128,0
3194,129,129,129,128,126,127,126,127,0
3197,125,128,130,129,126,128,128,127,0
3200,124,128,127,128,128,128,127,126,0
3204,124,129,126,127,129,128,128,129,0
3207,130,129,130,128,129,128,128,128,0
3211,129,128,128,128,129,128,129,128,0
3217,131,126,127,127,127,128,129,129,0
3222,129,127,125,127,127,128,128,128,0
3228,129,128,127,128,126,128,127,128,0
3231,128,128,128,127,125,127,128,127,0
3235,123,128,127,129,128,127,127,126,0
3238,124,124,129,128,128,129,127,129,0
3241,129,129,128,128,128,128,129,129,0
3244,129,126,126,128,129,128,127,127,0
3247,128,126,126,127,127,128,128,128,0
3250,129,127,127,128,129,127,128,129,0
3254,129,129,127,127,128,127,128,128,0
3257,129,127,127,126,124,126,126,127,0
3260,128,126,128,127,127,128,127,126,0
3263,123,128,128,128,127,127,126,128,0
3267,131,129,128,128,129,127,127,127,0
3270,129,128,130,128,129,126,127,128,0
3272,126,127,129,128,132,127,128,127,0
3276,129,127,128,128,128,127,126,128,0
3279,128,130,130,127,127,126,127,128,0
3282,129,128,130,129,128,128,129,128,0
3285,123,127,127,129,126,128,128,126,0
3288,123,128,128,127,127,127,128,127,0
3292,130,128,126,127,128,128,128,128,0
3294,131,128,126,125,129,128,128,128,0
3297,130,126,126,127,127,127,128,128,0
3300,128,125,126,127,128,128,129,128,0
3303,129,128,126,127,127,128,128,129,0
3306,129,127,126,127,126,127,128,127,0
3310,122,128,129,128,127,128,127,127,0
3312,123,127,127,128,125,129,129,129,0
3315,130,130,130,128,129,129,127,128,0
3319,131,127,126,127,127,128,128,128,0
3324,129,127,127,127,127,127,128,128,0
3328,124,125,126,128,130,126,129,128,0
3333,130,129,127,128,126,127,126,128,0
3336,129,128,129,128,129,127,129,128,0
3339,126,127,129,128,126,127,127,125,0
3342,122,127,128,128,127,128,127,126,0
3345,122,128,130,127,128,128,128,128,0
3348,131,130,129,127,127,127,127,126,0
3352,130,127,128,127,127,127,127,127,0
3354,127,125,127,126,125,127,127,127,0
3357,130,129,129,128,130,127,128,129,0
3361,128,129,128,126,129,127,129,128,0
3363,126,127,127,128,125,128,128,124,0
3369,120,129,127,128,128,129,127,126,0
3373,124,127,127,125,130,128,127,128,0
3375,131,129,128,125,128,128,128,128,0
3378,130,127,127,128,131,128,129,128,0
3382,130,126,126,128,129,128,129,129,0
3385,129,128,126,127,127,128,129,129,0
3390,129,128,127,127,126,128,129,128,0
3393,128,126,129,128,126,127,128,126,0
3396,122,127,128,129,127,127,128,127,0
3399,124,127,126,128,128,129,127,129,0
3402,130,129,127,127,128,128,127,127,0
3405,130,128,129,128,127,126,126,126,0
3410,127,127,128,128,126,127,126,127,0
3412,123,126,126,128,128,128,129,129,0
3415,129,129,127,128,126,127,127,128,0
3419,128,125,128,129,126,128,128,126,0
3424,125,128,128,128,127,127,126,126,0
3430,124,128,128,127,128,128,128,129,0
3433,131,129,126,126,129,129,128,128,0
3436,130,127,125,127,128,130,126,126,0
3438,130,125,129,128,128,127,128,127,0
3441,128,126,127,127,126,127,126,128,0
3444,128,130,129,128,130,127,127,128,0
3446,130,127,127,126,128,126,126,127,0
3449,126,126,129,129,126,128,128,126,0
3453,123,128,126,128,127,127,127,127,0
3456,123,128,129,126,129,128,127,127,0
3460,130,129,128,127,126,127,127,128,0
3464,130,127,128,128,127,127,127,127,0
3467,128,127,128,128,128,127,127,128,0
3470,130,128,127,129,130,128,128,129,0
3472,129,127,126,127,128,128,128,128,0
3475,129,126,128,126,130,127,129,124,0
3478,121,129,127,128,125,127,126,128,0
3481,130,129,127,126,128,128,129,129,0
3484,130,126,126,128,128,128,130,128,0
3487,129,126,126,127,127,127,127,128,0
3490,126,126,127,129,129,127,128,129,0
3494,128,128,128,126,129,128,128,129,0
3497,129,128,127,128,125,128,128,128,0
3501,129,126,129,130,128,129,128,124,0
3504,120,129,128,128,126,126,131,129,0
3507,130,128,128,126,128,128,128,128,0
3511,131,128,127,128,130,128,130,129,0
3515,130,127,125,126,128,128,129,128,0
3520,128,126,126,128,126,126,127,128,0
3523,128,129,128,128,128,127,126,128,0
3528,128,129,128,127,129,128,128,128,0
3534,128,126,126,129,124,127,127,128,0
3539,128,126,127,127,129,128,125,127,0
3542,128,128,129,128,126,128,126,127,0
3545,128,129,128,128,125,128,127,127,0
3548,123,128,128,128,127,127,127,127,0
3554,123,127,130,128,127,127,127,126,0
3557,129,128,127,127,128,127,129,131,0
3560,130,128,126,127,127,128,128,128,0
3564,130,126,127,127,127,127,127,127,0
3567,128,125,128,128,127,127,127,128,0
3570,129,127,127,127,127,127,127,128,0
3574,128,128,127,128,127,126,127,126,0
3578,122,129,128,129,127,127,127,126,0
3581,123,127,127,128,127,127,127,128,0
3584,131,127,126,127,129,128,127,129,0
3586,129,129,127,127,128,128,130,129,0
3590,128,127,126,127,125,128,127,128,0
3593,128,126,126,127,129,128,128,128,0
3596,130,126,128,128,127,126,126,128,0
3599,129,129,128,128,129,128,129,128,0
3603,130,127,127,128,126,127,128,127,0
3606,122,128,128,129,128,128,127,126,0
3609,123,128,129,128,127,126,128,129,0
3612,131,129,126,128,130,128,127,128,0
3615,129,127,127,128,129,127,129,127,0
3618,129,125,125,128,130,128,129,127,0
3621,129,127,127,126,129,128,128,129,0
3624,129,128,126,128,128,128,130,129,0
3627,127,126,127,126,130,125,126,126,0
3634,125,127,127,126,129,128,127,127,0
3638,128,126,129,126,129,128,128,129,0
3642,129,127,128,128,129,128,128,127,0
3647,125,129,126,128,128,127,127,127,0
3650,125,129,129,128,128,130,128,124,0
3653,121,129,128,128,126,127,128,128,0
3655,131,129,127,127,129,128,129,129,0
3660,129,129,127,127,125,127,126,127,0
3664,131,127,127,126,128,127,126,127,0
3667,126,126,128,126,129,127,126,129,0
3674,128,129,127,128,130,128,129,129,0
3677,129,127,126,127,126,127,128,128,0
3681,122,126,129,129,127,128,127,126,0
3684,123,127,128,128,127,128,128,129,0
3688,131,129,126,128,128,128,128,128,0
3692,130,128,126,127,129,128,129,129,0
3695,129,125,125,127,127,129,127,128,0
3699,131,127,128,128,128,127,128,128,0
3703,129,129,126,127,127,128,128,129,0
3706,130,128,127,127,126,126,127,128,0
3709,123,128,128,129,127,128,128,126,0
3716,128,129,130,126,128,127,127,128,0
3712,123,127,127,127,126,127,126,127,0
3719,130,127,125,126,128,129,129,129,0
3722,129,126,125,128,129,128,128,127,0
3728,129,125,128,129,130,127,129,128,0
3733,130,128,126,127,127,127,128,129,0
3737,130,127,128,128,125,127,126,128,0
3740,122,128,129,128,126,128,128,126,0
3747,131,129,128,128,128,128,127,128,0
3743,123,127,128,127,128,128,126,127,0
3752,131,129,128,128,127,127,126,127,0
3757,130,128,128,128,127,126,127,125,0
3760,129,125,126,128,128,127,128,127,0
3764,128,130,128,128,129,129,127,129,0
3767,131,128,126,127,128,128,129,128,0
3771,130,125,128,127,124,128,128,127,0
3787,124,126,127,128,130,127,129,128,0
3791,126,127,126,127,127,128,128,129,0
3795,126,128,128,128,129,127,126,126,0
3799,122,129,128,128,127,127,127,126,0
3802,123,127,128,127,127,127,127,126,0
3806,123,126,128,127,131,128,127,128,0
3810,131,128,127,127,128,127,126,128,0
3815,128,126,128,127,127,126,127,127,0
3819,128,125,127,128,125,127,126,127,0
3824,130,129,128,127,128,127,126,129,0
3827,128,129,128,128,125,126,126,127,0
3831,129,128,128,127,128,127,127,128,0
3834,126,126,127,129,127,127,127,127,0
3837,123,128,129,128,126,128,127,128,0
3841,129,128,127,126,129,128,126,127,0
3844,129,128,128,128,129,127,128,127,0
3848,131,128,128,128,124,127,129,127,0
3851,128,126,126,126,129,129,129,129,0
3854,131,127,126,127,128,128,128,129,0
3856,130,127,126,126,129,128,128,128,0
3859,129,125,126,127,125,127,127,127,0
3862,123,126,128,128,128,127,126,127,0
3866,122,131,129,128,126,128,127,126,0
3870,124,129,127,128,126,130,131,128,0
3874,131,126,125,126,128,130,131,129,0
3879,129,127,126,127,128,128,127,129,0
3883,129,129,128,128,125,127,127,128,0
3886,130,128,129,128,126,126,127,127,0
3890,128,124,127,128,129,126,127,128,0
3893,125,128,128,129,126,128,127,127,0
3895,123,130,128,128,129,127,127,127,0
3900,129,128,127,128,129,127,127,128,0
3903,130,127,127,126,128,127,127,127,0
3906,129,127,127,128,129,128,129,129,0
3910,129,129,126,128,125,127,127,128,0
3913,128,128,128,128,124,127,129,126,0
3916,123,128,128,128,126,127,129,126,0
3920,122,128,128,128,125,128,127,128,0
3923,129,129,126,128,129,129,129,128,0
3926,130,127,126,128,130,127,127,128,0
3930,127,125,126,127,127,128,129,128,0
3933,127,125,126,127,127,127,126,127,0
3936,128,130,131,128,126,127,126,127,0
3939,129,129,129,128,125,128,127,127,0
3942,130,125,128,128,127,129,128,123,0
3945,120,129,127,129,127,127,126,127,0
3948,129,129,128,125,127,128,127,128,0
3951,130,127,126,128,129,128,128,129,0
3954,130,126,125,128,124,128,129,127,0
3957,126,125,125,127,127,128,128,128,0
3960,129,128,127,128,125,127,126,129,0
3963,129,129,131,128,126,126,126,127,0
3968,130,126,126,129,126,127,128,127,0
3972,123,127,128,129,127,128,127,127,0
3976,127,129,129,129,129,126,127,128,0
3982,130,128,127,125,128,128,128,128,0
3986,130,126,125,127,126,127,131,128,0
3990,128,125,126,126,128,128,129,129,0
3993,129,128,126,128,129,128,129,129,0
3996,129,128,126,127,127,127,127,128,0
4000,127,126,129,126,128,127,127,127,0
4003,122,128,128,129,126,128,127,126,0
4006,123,128,128,126,131,128,128,128,0
4009,129,129,128,128,129,127,127,128,0
4012,130,126,126,128,127,126,125,127,0
4015,128,125,128,128,127,127,127,127,0
4018,128,128,127,126,129,128,128,129,0
4021,129,128,126,127,127,127,129,129,0
4024,121,128,128,129,128,128,127,127,0
4026,123,127,128,129,127,127,127,126,0
4030,129,128,127,126,129,128,127,128,0
4032,129,130,127,128,130,126,128,127,0
4035,129,126,130,125,128,127,127,126,0
4038,127,126,129,128,126,127,126,128,0
4041,126,127,127,127,128,128,129,128,0
4044,129,128,127,127,128,127,126,127,0
4047,128,127,129,129,127,128,127,126,0
4050,123,128,129,129,127,128,127,126,0
4053,122,129,128,125,129,129,131,129,0
4056,130,128,127,125,128,128,130,129,0
4059,129,127,126,125,129,128,128,128,0
4062,129,126,126,127,126,127,128,127,0
4065,129,127,129,128,129,128,128,129,0
4068,129,128,126,127,128,128,128,129,0
4072,128,128,128,128,125,127,127,126,0
4076,123,128,128,128,126,127,127,126,0
4079,122,128,127,126,130,129,129,129,0
4082,130,129,126,127,128,128,128,128,0
4084,130,128,127,128,130,127,127,128,0
4087,128,127,128,129,128,126,126,128,0
4090,128,127,126,128,129,128,128,129,0
4093,130,129,126,127,126,127,128,128,0
4096,130,127,127,128,125,127,127,127,0
4098,130,126,128,129,129,125,127,127,0
4104,128,129,127,128,125,127,126,128,0
4101,126,127,128,129,127,128,128,128,0
4108,129,128,129,128,130,127,126,126,0
4111,122,129,128,128,127,129,126,125,0
4114,122,129,127,128,126,126,126,128,0
4119,131,129,128,128,129,128,127,128,0
4122,130,129,128,125,127,127,127,127,0
4125,128,126,128,127,127,126,126,127,0
4128,127,127,127,127,129,128,128,128,0
4131,129,128,127,128,127,128,129,129,0
4134,131,126,126,127,126,127,126,128,0
4137,130,127,128,128,126,126,127,126,0
4141,122,128,128,129,126,128,127,127,0
4144,126,129,130,127,129,128,128,129,0
4147,130,128,127,126,129,129,129,128,0
4151,128,126,127,126,129,128,126,127,0
4154,127,126,127,128,125,127,127,127,0
4156,127,129,129,128,127,127,126,128,0
4159,128,129,129,126,126,127,126,127,0
4162,123,129,128,129,127,127,128,126,0
4166,124,127,127,129,127,127,128,126,0
4170,131,128,127,127,129,128,126,128,0
4175,130,129,127,128,129,129,129,128,0
4178,128,128,128,128,129,128,128,128,0
4181,129,125,127,126,129,128,129,128,0
4184,129,129,129,128,127,128,127,127,0
4187,128,128,128,128,128,128,125,127,0
4191,127,127,128,129,127,129,127,126,0
4194,123,128,128,128,126,128,128,127,0
4198,123,129,127,127,128,129,127,129,0
4201,130,129,128,127,128,128,128,128,0
4205,129,126,126,127,128,127,128,128,0
4208,129,124,126,126,128,128,128,127,0
4211,128,128,125,128,128,128,128,129,0
4218,130,128,127,128,125,126,127,128,0
4222,128,128,128,128,128,126,126,127,0
4226,129,127,128,128,126,127,128,126,0
4229,122,129,128,128,125,128,128,129,0
4231,130,129,127,127,128,127,125,127,0
4235,131,128,129,128,128,126,127,127,0
4239,129,127,126,128,127,128,129,128,0
4242,128,127,127,128,126,127,128,128,0
4245,127,129,129,128,128,127,126,128,0
4248,128,128,129,128,127,127,128,126,0
4252,123,127,128,128,126,127,127,126,0
4255,123,128,128,128,125,128,128,128,0
4258,130,129,127,127,127,127,126,127,0
4262,129,128,127,127,131,128,129,128,0
4265,130,126,126,128,125,129,127,127,0
4269,128,127,128,128,127,126,126,128,0
4280,129,129,129,128,129,127,128,128,0
4284,126,128,129,127,127,127,128,126,0
4287,123,128,128,128,127,128,128,125,0
4291,123,127,127,129,128,129,128,129,0
4294,131,128,126,126,130,128,128,129,0
4297,130,127,126,127,126,127,127,127,0
4300,128,126,128,128,128,127,128,128,0
4304,127,127,127,127,127,128,126,128,0
4307,128,129,129,128,128,127,126,128,0
4310,128,128,129,129,129,128,127,126,0
4313,123,128,127,129,126,128,129,127,0
4316,123,128,127,128,127,127,126,128,0
4320,129,130,129,126,129,128,126,128,0
4323,130,128,129,128,129,128,128,127,0
4325,129,126,129,129,128,126,128,128,0
4329,127,126,127,127,129,128,128,129,0
4332,130,128,126,126,128,127,128,128,0
4335,129,127,129,128,127,126,126,127,0
4337,129,126,128,128,129,126,127,127,0
4341,122,128,128,128,126,128,127,127,0
4343,124,126,130,126,129,128,127,128,0
4347,130,129,129,128,125,127,127,127,0
4351,128,126,129,128,130,128,128,126,0
4355,127,125,127,128,126,128,129,128,0
4359,128,129,128,128,127,128,126,128,0
4362,129,128,127,126,128,129,129,128,0
4366,129,125,126,126,129,128,128,126,0
4370,122,127,127,127,127,128,127,127,0
4374,124,129,128,128,126,127,127,128,0
4378,130,129,126,126,129,128,129,128,0
4383,130,125,126,126,128,128,128,127,0
4388,130,126,126,128,127,127,128,127,0
4392,129,128,128,128,127,127,126,128,0
4394,128,130,128,126,129,128,128,128,0
4397,127,127,127,127,128,126,128,126,0
4400,122,128,128,129,127,128,129,126,0
4403,124,129,127,127,130,129,129,129,0
4405,131,129,127,127,128,127,126,127,0
4409,129,127,128,127,126,126,127,127,0
4413,130,127,129,128,131,128,127,128,0
4416,126,127,127,126,129,127,128,128,0
4419,130,127,127,126,129,128,127,128,0
4422,130,126,127,128,127,128,130,129,0
4424,124,127,128,128,128,127,126,127,0
4428,126,128,129,129,129,127,126,128,0
4431,128,129,130,128,125,126,128,126,0
4434,123,129,127,129,127,128,127,127,0
4437,124,128,128,128,128,127,127,126,0
4440,124,128,128,128,127,126,127,126,0
4443,130,129,127,125,128,128,128,128,0
4447,130,127,126,127,127,128,130,128,0
4450,129,127,126,127,127,127,130,129,0
4453,128,127,127,128,127,127,126,128,0
4457,129,128,129,128,127,127,126,127,0
4460,128,128,130,128,128,128,129,127,0
4463,130,126,127,126,130,125,127,127,0
4466,127,127,130,128,127,128,128,128,0
4469,128,129,128,128,128,127,127,127,0
4472,128,127,128,128,127,127,127,126,0
4477,123,128,128,129,127,128,128,126,0
4482,123,127,126,128,132,129,129,129,0
4487,130,128,127,127,129,128,126,127,0
4490,129,128,128,128,124,127,127,127,0
4493,129,128,129,128,128,126,128,127,0
4496,129,127,126,128,125,128,127,129,0
4500,128,129,129,128,126,127,126,128,0
4503,129,129,128,128,129,126,127,125,0
4506,125,129,128,128,127,128,127,125,0
4508,124,127,127,128,129,129,127,128,0
4511,130,128,129,128,128,128,126,128,0
4514,128,128,128,128,129,127,126,128,0
4517,128,125,130,126,130,126,127,126,0
4520,122,128,128,129,127,128,126,129,0
4523,130,129,130,126,128,127,126,128,0
4525,130,128,131,128,129,125,126,127,0
4528,130,126,129,128,128,127,126,128,0
4531,127,127,128,128,129,128,128,129,0
4534,127,129,126,127,128,128,128,129,0
4537,130,128,127,127,124,128,128,128,0
4540,123,126,128,127,127,128,128,126,0
4543,123,128,128,128,126,126,127,128,0
4546,131,129,128,127,127,128,127,128,0
4549,128,129,128,126,129,126,128,127,0
4552,126,128,129,128,131,128,129,128,0
4556,124,127,129,128,129,128,127,128,0
4560,129,128,127,127,128,128,126,128,0
4565,130,128,127,126,128,127,128,128,0
4568,125,127,130,129,126,127,127,126,0
4574,122,128,127,128,127,127,127,126,0
4584,123,127,129,127,128,127,126,128,0
4589,129,129,128,126,129,128,128,128,0
4595,130,126,125,125,128,128,129,129,0
4598,127,125,127,128,128,129,130,129,0
4602,128,127,126,128,129,128,128,129,0
4605,129,128,126,128,128,128,127,127,0
4609,128,127,128,129,125,127,128,126,0
4611,122,127,128,129,127,127,128,126,0
4616,123,128,127,127,128,128,128,129,0
4619,130,130,127,126,127,128,131,129,0
4622,129,126,125,125,128,128,129,127,0
4625,130,127,127,128,125,127,128,127,0
4627,124,127,127,126,128,128,129,129,0
4633,130,129,127,127,125,128,126,128,0
4636,129,128,129,128,127,128,127,126,0
4638,123,127,128,129,127,127,127,126,0
4641,123,128,127,127,129,129,128,128,0
4644,131,128,130,126,129,128,129,129,0
4646,130,128,126,127,127,127,126,127,0
4649,128,125,125,127,126,128,128,128,0
4652,128,127,128,127,127,127,126,127,0
4656,129,129,127,128,125,127,128,128,0
4659,128,127,128,128,124,127,128,128,0
4663,125,126,127,128,126,126,127,128,0
4667,128,127,127,129,124,126,127,128,0
4670,128,130,126,127,127,127,128,128,0
4675,124,128,127,128,127,127,128,126,0
4679,123,128,129,128,128,128,128,126,0
4685,123,129,128,128,127,127,126,128,0
4689,128,130,129,127,128,128,128,128,0
4692,132,129,126,128,131,128,131,128,0
4697,126,127,127,128,129,128,132,128,0
4705,129,127,129,128,130,129,129,130,0
4709,129,128,126,127,128,128,128,129,0
4713,130,128,126,128,126,128,128,128,0
4716,128,126,127,128,125,128,127,126,0
4719,123,128,129,129,127,128,126,126,0
4722,130,128,126,127,128,127,128,128,0
4726,129,128,127,126,127,127,127,128,0
4729,130,126,130,128,126,127,129,128,0
4732,129,125,126,127,126,127,127,128,0
4735,128,129,128,128,126,127,126,128,0
4739,128,128,128,126,128,128,128,128,0
4742,129,126,127,128,128,127,128,127,0
4745,126,125,127,128,126,128,129,128,0
4749,128,128,128,128,128,129,127,127,0
4752,123,129,128,128,127,128,127,127,0
4755,123,128,128,129,127,128,127,126,0
4759,124,127,129,129,127,124,129,129,0
4762,132,128,126,127,127,128,128,128,0
4765,131,128,126,125,129,130,128,127,0
4769,131,126,126,126,128,128,129,128,0
4772,128,126,125,128,131,128,130,128,0
4775,129,128,126,127,127,128,128,128,0
4778,129,128,127,128,125,127,128,128,0
4782,130,125,127,127,126,126,127,127,0
4785,129,125,125,128,124,128,127,128,0
4789,129,128,127,128,127,127,126,128,0
4791,128,128,127,127,123,129,128,128,0
4794,127,125,128,127,127,129,128,123,0
4797,121,129,127,128,127,129,127,128,0
4803,123,128,130,125,127,128,127,129,0
4808,129,128,127,126,129,127,127,128,0
4812,130,125,125,127,127,129,131,128,0
4818,129,126,126,128,129,130,129,128,0
4822,129,128,128,126,128,128,129,129,0
4825,129,128,126,127,126,127,129,129,0
4827,128,126,129,128,128,127,125,127,0
4830,130,125,126,128,129,128,127,127,0
4833,128,128,128,128,130,127,127,129,0
4838,130,128,128,126,128,127,128,128,0
4841,127,127,129,128,127,129,127,125,0
4844,124,128,127,129,128,128,127,126,0
4847,124,127,128,128,129,128,126,128,0
4852,129,130,131,127,129,126,126,127,0
4855,130,129,129,128,127,127,127,127,0
4858,127,126,126,127,127,127,128,127,0
4861,123,128,128,128,127,128,126,129,0
4865,131,129,126,125,127,128,128,128,0
4868,130,128,129,128,128,128,129,128,0
4871,129,127,128,128,126,128,128,128,0
4874,127,127,128,128,130,127,127,128,0
4878,129,129,130,126,128,128,127,128,0
4882,127,127,129,127,127,127,127,128,0
4885,130,126,126,127,128,129,130,128,0
4888,127,126,127,128,129,127,128,129,0
4891,129,128,127,128,128,128,129,128,0
4894,125,125,128,128,128,129,128,124,0
4897,120,129,127,128,128,129,127,124,0
4901,121,128,127,127,128,130,128,128,0
4905,131,129,127,127,127,128,129,129,0
4908,130,127,126,125,127,127,128,128,0
4912,129,126,127,128,129,126,126,125,0
4917,130,127,129,128,129,127,127,128,0
4922,130,129,130,128,128,127,127,128,0
4927,128,128,130,126,129,127,127,127,0
4932,130,125,126,128,127,128,129,128,0
4936,128,124,127,128,125,127,127,127,0
4940,122,127,128,127,127,127,126,128,0
4943,129,127,129,128,128,126,127,128,0
4945,128,124,129,127,128,128,128,126,0
4948,123,128,128,129,127,126,127,127,0
4951,130,130,128,127,128,127,127,128,0
4955,129,128,126,127,128,127,125,127,0
4958,129,127,129,128,129,128,127,127,0
4961,128,125,127,127,127,128,128,129,0
4964,128,129,127,127,127,127,130,129,0
4968,129,128,126,127,128,127,127,127,0
4971,123,129,127,128,127,128,129,126,0
4974,123,128,128,128,127,127,126,126,0
4978,131,129,130,128,128,128,127,128,0
4981,130,127,127,127,128,127,127,128,0
4985,128,127,128,128,127,127,126,127,0
4988,128,126,126,127,130,128,127,129,0
4991,130,128,126,127,128,128,127,128,0
4994,129,129,130,129,129,126,126,128,0
4997,127,127,130,129,127,128,128,127,0
5000,122,128,128,129,127,128,128,126,0
5003,124,126,126,128,129,128,126,128,0
5006,129,129,130,128,127,127,126,127,0
5011,128,127,127,128,126,127,126,127,0
5014,130,125,128,128,126,129,126,127,0
5017,128,128,128,126,128,128,129,129,0
5021,131,128,126,127,126,126,128,128,0
5027,128,127,128,129,127,127,127,126,0
5034,123,128,127,127,127,127,128,126,0
5037,123,126,126,128,131,129,127,128,0
5040,129,129,128,129,128,128,128,128,0
5043,131,126,125,127,127,128,130,127,0
5047,123,126,127,126,128,126,126,127,0
5050,126,127,127,128,127,128,127,128,0
5054,128,130,129,128,127,126,126,128,0
5058,129,128,129,128,125,127,128,126,0
5061,124,128,128,129,127,129,128,126,0
5066,124,129,127,128,126,128,128,128,0
5069,130,129,126,128,127,128,129,129,0
5072,130,128,126,127,128,128,128,128,0
5076,128,127,128,128,125,127,127,127,0
5079,128,127,129,128,128,128,128,129,0
5082,130,128,126,128,128,127,128,127,0
5085,129,126,126,127,125,127,129,128,0
5088,125,127,129,128,128,127,128,127,0
5092,126,125,129,129,126,128,126,127,0
5095,123,130,128,128,127,128,127,126,0
5099,125,127,128,127,126,128,131,126,0
5102,131,127,129,128,125,128,128,128,0
5105,128,127,128,128,129,128,128,128,0
5109,129,130,130,126,128,127,128,128,0
5111,130,128,127,126,129,128,129,127,0
5114,128,124,127,128,128,127,128,128,0
5118,127,127,128,126,129,129,128,129,0
5121,129,129,128,127,127,127,127,128,0
5125,130,128,126,128,127,128,128,128,0
5127,130,125,129,128,127,130,127,123,0
5132,121,128,127,128,127,127,128,129,0
5137,130,128,127,127,129,129,130,129,0
5143,130,128,126,126,130,128,130,128,0
5146,130,126,127,128,129,127,128,128,0
5148,124,123,129,128,129,128,127,128,0
5152,130,129,127,127,127,127,128,128,0
5155,129,127,127,128,129,125,129,128,0
5158,125,126,127,126,129,128,127,125,0
5161,121,128,128,129,128,128,127,127,0
5164,126,129,129,128,128,127,127,128,0
5168,131,129,127,127,126,127,127,127,0
5171,130,127,130,128,126,126,126,128,0
5174,122,126,128,129,126,128,128,126,0
5178,123,127,127,127,129,129,129,130,0
5181,130,128,127,127,128,128,129,129,0
5187,128,126,126,126,129,128,130,127,0
5191,125,125,125,127,126,127,127,127,0
5195,129,129,129,127,128,126,126,128,0
5199,128,129,129,128,126,127,127,128,0
5202,126,127,127,128,130,126,127,127,0
5206,128,125,129,129,127,127,127,126,0
5209,123,129,128,128,126,127,125,127,0
5213,129,129,127,128,129,128,128,128,0
5216,128,127,127,127,129,128,129,128,0
5219,126,124,129,128,128,128,126,128,0
5222,125,127,126,127,127,128,128,128,0
5225,129,128,128,128,128,127,126,127,0
5229,125,127,127,129,128,128,128,127,0
5232,123,128,128,128,126,128,130,126,0
5235,124,127,125,127,130,129,130,128,0
5240,131,130,130,128,129,128,126,128,0
5245,128,128,127,128,129,126,127,127,0
5250,128,125,128,126,123,127,128,128,0
5254,127,128,128,127,129,127,127,129,0
5257,127,129,128,127,128,128,128,128,0
5260,129,126,126,126,127,127,128,125,0
5264,123,129,127,128,127,128,127,126,0
5268,123,129,128,128,125,128,128,129,0
5271,130,129,126,125,128,128,126,127,0
5274,130,128,128,128,129,128,128,128,0
5278,125,125,129,127,130,126,127,128,0
5282,128,127,125,127,128,128,128,129,0
5285,129,128,126,127,127,128,129,129,0
5288,130,126,126,127,129,128,127,125,0
5291,122,128,127,128,127,128,128,126,0
5294,122,127,128,128,126,127,127,128,0
5298,130,129,130,128,129,128,128,128,0
5301,129,126,126,128,131,128,131,128,0
5304,129,125,126,127,128,125,127,127,0
5307,127,126,129,128,129,128,128,128,0
5312,129,129,128,127,129,128,129,129,0
5315,129,126,126,129,127,128,126,127,0
5319,126,124,126,127,124,127,129,126,0
5322,122,129,128,128,126,128,128,127,0
5324,123,129,128,128,128,128,126,127,0
5328,131,129,130,126,128,127,127,127,0
5331,129,126,130,126,127,127,127,128,0
5334,129,127,128,128,127,127,127,126,0
5336,126,130,127,128,130,129,129,128,0
5339,130,128,126,127,128,127,127,127,0
5343,128,127,128,126,128,126,126,125,0
5347,127,126,126,127,129,129,129,129,0
5352,130,129,127,127,127,128,127,128,0
5355,129,129,129,126,129,128,128,128,0
5359,130,126,127,126,128,126,126,127,0
5362,128,127,128,128,127,126,128,127,0
5366,130,129,129,128,129,128,126,128,0
5369,129,128,128,129,127,127,128,126,0
5372,122,128,128,128,127,130,128,123,0
5376,120,129,128,128,127,127,127,128,0
5379,131,129,127,125,129,128,129,128,0
5381,130,128,127,127,128,127,128,128,0
5384,130,126,126,128,129,128,129,127,0
5387,128,125,126,127,125,128,128,128,0
5391,129,128,127,127,125,127,127,128,0
5394,130,128,128,128,126,127,126,126,0
5398,123,129,128,130,127,128,128,125,0
5401,123,127,129,129,127,128,128,128,0
5404,129,129,126,127,129,130,128,128,0
5407,130,129,128,128,127,128,127,128,0
5411,129,127,127,128,126,127,127,125,0
5414,129,127,128,128,126,127,126,127,0
5417,128,128,127,128,128,128,129,129,0
5420,129,128,126,127,126,127,126,128,0
5423,128,127,129,129,127,128,129,128,0
5426,125,127,126,128,124,127,127,127,0
5429,122,129,128,129,123,129,128,129,0
5432,130,128,128,127,127,127,126,127,0
5437,129,127,130,128,125,127,127,128,0
5440,126,126,128,129,127,127,127,126,0
5444,123,129,128,128,125,128,128,129,0
5448,130,128,129,128,131,128,128,128,0
5454,130,127,128,128,126,127,126,127,0
5458,130,126,129,128,131,128,126,128,0
5466,129,127,129,127,127,128,128,128,0
5469,129,129,128,128,127,127,127,129,0
5472,130,127,127,128,125,128,128,128,0
5474,129,124,129,128,126,128,128,126,0
5477,123,129,128,128,124,129,128,128,0
5488,129,129,127,127,129,128,127,128,0
5492,130,127,126,127,127,126,129,129,0
5496,126,127,129,128,128,127,127,128,0
5501,128,127,126,127,131,128,127,129,0
5504,129,129,126,127,127,128,128,129,0
5508,128,127,127,128,128,128,127,126,0
5511,123,128,129,128,127,128,128,126,0
5514,123,128,128,127,127,127,127,128,0
5518,130,129,127,127,129,128,127,128,0
5521,131,128,127,127,127,126,126,127,0
5524,128,123,130,128,128,126,129,128,0
5528,128,126,125,127,127,126,126,128,0
5530,129,130,129,128,127,126,127,128,0
5533,128,128,129,128,124,126,128,127,0
5539,124,128,129,128,126,128,127,126,0
5542,124,126,127,128,127,128,127,129,0
5545,129,129,128,127,128,127,128,129,0
5547,130,129,126,127,126,127,129,128,0
5551,130,127,128,128,126,126,126,127,0
5553,128,127,128,128,128,128,127,128,0
5557,127,129,129,126,125,128,126,128,0
5561,129,129,128,128,128,126,126,128,0
5574,128,127,127,128,125,129,128,127,0
5577,129,125,127,128,128,128,129,129,0
5582,129,128,127,127,126,127,128,128,0
5585,128,129,129,128,128,129,128,124,0
5589,123,129,128,129,128,129,127,125,0
5591,123,127,128,128,127,126,128,129,0
5595,130,128,126,127,129,130,129,128,0
5598,130,128,128,127,129,128,129,128,0
5602,130,126,125,127,127,127,130,128,0
5605,128,124,126,127,126,128,127,128,0
5611,128,129,128,125,127,128,128,128,0
5615,130,127,127,127,125,127,129,128,0
5619,128,126,127,127,126,127,128,128,0
5623,122,126,127,127,127,127,128,126,0
5627,123,128,128,127,128,127,126,128,0
5630,131,128,127,126,128,128,128,128,0
5633,129,125,126,127,127,125,127,126,0
5636,127,128,129,128,125,127,127,128,0
5640,129,128,127,126,129,128,128,128,0
5653,129,127,126,128,128,128,129,129,0
5657,127,126,128,129,124,127,128,127,0
5660,122,128,127,129,128,127,127,127,0
5664,124,128,129,128,124,128,130,129,0
5667,131,128,126,127,128,128,126,128,0
5670,130,126,130,126,129,127,127,127,0
5674,129,125,126,129,126,127,128,127,0
5677,124,126,126,126,128,128,127,129,0
5680,129,128,128,128,127,127,127,127,0
5685,130,127,129,128,126,127,126,127,0
5694,127,126,128,129,127,127,126,126,0
5697,123,128,128,128,123,129,130,129,0
5701,130,129,127,127,128,128,128,128,0
5704,131,127,127,127,126,128,128,129,0
5707,130,125,126,129,127,127,127,126,0
5710,123,128,128,129,126,126,127,128,0
5714,131,130,128,128,129,128,131,129,0
5717,130,128,126,127,127,127,128,128,0
5720,130,127,128,128,126,127,128,128,0
5723,129,127,127,127,127,128,126,128,0
5726,129,128,127,127,127,127,126,128,0
5730,128,128,129,128,126,127,127,125,0
5733,123,128,128,129,127,128,127,125,0
5737,123,128,128,128,125,128,127,128,0
5740,129,129,128,127,128,128,127,129,0
5744,131,127,127,127,127,127,127,127,0
5747,127,126,128,127,126,127,127,127,0
5750,129,127,128,128,129,128,128,129,0
5754,127,129,131,127,127,127,126,127,0
5765,128,129,129,126,125,126,126,127,0
5769,128,127,127,128,129,128,128,127,0
5773,124,129,128,129,128,128,127,127,0
5776,123,130,128,129,126,127,126,128,0
5780,131,129,129,127,127,128,128,127,0
5785,129,127,127,127,127,127,129,128,0
5789,125,127,126,126,129,128,129,129,0
5793,129,129,128,128,125,128,126,127,0
5801,129,128,129,129,129,127,128,127,0
5806,123,128,128,129,127,128,128,125,0
5811,123,128,127,128,127,126,128,128,0
5816,132,129,128,128,129,128,127,129,0
5821,130,129,129,128,130,127,127,127,0
5824,130,125,126,128,127,128,128,127,0
5827,126,125,127,129,129,128,128,128,0
5830,130,129,127,128,128,128,129,129,0
5837,129,128,127,128,125,128,128,128,0
5841,128,126,126,126,128,127,128,127,0
5844,128,127,128,127,126,127,127,126,0
5847,123,129,129,128,127,128,126,128,0
5851,132,129,128,127,128,128,126,127,0
5854,129,126,130,126,127,126,127,127,0
5857,127,125,126,126,129,128,129,128,0
5861,130,128,127,128,127,127,126,128,0
5864,129,129,128,126,127,127,128,128,0
5867,128,126,128,128,128,125,128,127,0
5870,129,126,127,128,125,127,127,127,0
5873,126,129,129,128,128,128,128,127,0
5876,127,128,126,128,129,126,125,127,0
5880,129,126,127,129,128,129,128,123,0
5883,121,129,127,128,128,129,127,124,0
5887,122,129,127,127,130,129,131,129,0
5896,130,129,128,127,129,128,129,129,0
5902,131,126,125,127,130,130,131,128,0
5906,129,126,125,126,127,126,127,128,0
5909,129,128,126,126,130,128,128,129,0
5913,130,128,126,127,127,128,129,129,0
5918,128,126,126,127,126,126,127,127,0
5923,130,126,127,128,126,127,130,128,0
5930,128,128,127,126,132,126,127,128,0
5935,129,129,127,126,129,128,127,128,0
5938,124,130,129,129,127,128,127,126,0
5941,124,128,128,127,127,128,128,126,0
5945,123,127,128,127,128,129,129,129,0
5948,129,129,128,127,128,127,126,128,0
5951,128,126,126,128,129,128,128,128,0
5954,128,127,130,126,127,127,127,127,0
5957,128,126,127,128,129,129,128,128,0
5969,130,128,127,127,127,126,127,128,0
5973,130,128,129,128,126,126,126,127,0
5976,128,125,127,128,129,128,128,126,0
5980,121,129,128,129,126,128,127,127,0
5983,126,130,130,126,130,128,128,128,0
5986,130,128,127,126,129,127,127,126,0
5989,127,125,129,128,127,126,129,128,0
5992,129,126,126,127,126,127,127,129,0
5995,129,128,126,128,125,128,127,128,0
5998,129,127,128,129,124,128,127,128,0
6010,129,126,128,129,126,128,127,126,0
6015,122,128,128,128,127,127,127,129,0
6019,130,129,129,127,132,128,128,129,0
6022,131,127,126,126,129,130,127,127,0
6026,126,125,126,127,127,128,131,127,0
6029,127,127,126,126,129,128,128,128,0
6032,130,128,125,127,127,129,129,129,0
6035,129,128,126,127,126,127,128,127,0
6038,130,125,126,128,126,130,127,126,0
6043,123,128,127,129,127,128,128,127,0
6047,126,129,130,128,129,128,128,129,0
6055,131,128,129,125,129,128,129,129,0
6058,129,124,130,128,127,128,128,128,0
6061,124,127,128,128,127,127,127,127,0
6064,126,129,127,127,126,128,127,129,0
6068,130,129,128,127,128,126,127,128,0
6074,125,126,126,125,128,128,130,127,0
6077,127,125,127,128,129,128,128,128,0
6080,129,129,126,126,128,128,129,129,0
6088,130,128,127,127,126,128,127,129,0
6091,124,126,126,129,127,128,127,126,0
6095,123,128,129,128,127,127,127,126,0
6099,124,127,128,127,128,128,126,128,0
6102,130,128,127,127,127,129,129,128,0
6105,129,127,128,127,128,127,126,127,0
6111,129,127,128,128,129,126,125,127,0
6114,128,128,128,128,128,128,128,128,0
6117,130,128,127,126,129,127,127,128,0
6121,129,127,128,127,129,127,128,127,0
6125,122,127,128,129,126,128,126,126,0
6128,122,129,128,128,125,126,127,128,0
6130,131,129,129,128,129,128,129,128,0
6134,130,127,126,128,124,128,128,127,0
6146,128,127,126,127,125,127,127,127,0
6150,129,128,128,126,130,127,128,128,0
6153,130,129,128,126,128,128,127,127,0
6157,127,127,129,128,125,128,127,125,0
6161,123,128,127,128,125,127,128,127,0
6164,124,126,127,127,127,128,127,129,0
6169,129,130,130,126,129,128,127,128,0
6173,129,127,126,128,127,129,129,128,0
6178,128,125,126,128,126,126,127,127,0
6182,128,128,129,128,128,126,126,127,0
6185,128,128,129,128,125,127,127,128,0
6188,125,127,127,128,126,128,127,125,0
6191,123,128,129,129,127,127,128,126,0
6194,123,126,128,127,128,128,127,129,0
6197,130,129,127,127,127,128,128,128,0
6201,130,129,129,128,129,126,126,127,0
6204,130,125,130,128,129,127,128,128,0
6208,128,126,126,127,129,128,129,129,0
6219,129,129,127,126,128,128,128,128,0
6223,127,129,129,129,127,126,127,126,0
6226,123,128,128,129,127,127,129,125,0
6230,122,129,128,128,130,127,127,128,0
6233,129,129,126,125,129,128,129,128,0
6236,131,127,125,128,129,129,127,127,0
6239,127,125,127,128,126,126,126,127,0
6242,129,128,128,128,126,128,126,128,0
6245,129,130,129,128,127,128,127,128,0
6249,126,128,128,127,129,127,126,128,0
6252,130,125,128,127,125,128,127,125,0
6260,123,128,128,129,127,127,127,127,0
6264,129,129,127,128,128,128,126,128,0
6267,129,129,128,128,128,127,128,128,0
6270,127,126,125,128,128,126,127,127,0
6274,127,126,128,128,125,128,126,128,0
6277,128,130,129,126,128,126,128,128,0
6281,128,128,127,128,127,126,126,127,0
6287,129,129,127,128,127,128,127,126,0
6335,123,128,127,129,127,126,129,129,0
6343,130,128,127,127,129,128,128,128,0
6349,131,129,128,128,128,127,127,128,0
6353,127,126,127,127,129,127,127,128,0
6357,128,125,127,125,128,128,128,128,0
6401,129,128,129,128,127,127,126,128,0
6407,129,129,128,128,124,127,127,127,0
6411,123,129,127,129,127,128,127,126,0
6421,123,127,128,128,127,128,129,129,0
6425,130,128,127,127,129,129,128,128,0
6469,130,128,126,127,127,128,128,129,0
6477,128,127,128,126,131,127,128,127,0
6483,126,125,128,128,127,126,126,127,0
6538,127,129,128,127,129,128,128,128,0
6546,129,127,127,127,130,125,128,129,0
6555,129,126,129,129,127,128,127,124,0
6563,122,128,127,128,128,127,126,126,0
6570,124,125,126,126,126,127,129,129,0
6605,129,129,130,128,128,127,127,128,0
6614,129,127,127,128,131,127,131,127,0
6624,129,125,125,126,128,128,130,128,0
6630,131,128,126,127,127,128,127,128,0
6638,129,129,130,128,127,125,127,129,0
6644,129,126,126,128,124,127,127,128,0
6647,128,126,128,128,126,126,128,128,0
6650,126,128,126,127,127,128,128,129,0
6654,130,129,127,129,125,127,127,128,0
6657,128,127,126,128,126,128,127,126,0
6660,123,128,128,128,127,127,127,127,0
6663,123,128,128,126,130,128,126,128,0
6667,129,129,127,127,127,128,128,128,0
6670,131,128,128,128,128,127,128,126,0
6673,123,128,128,128,126,128,127,126,0
6677,123,128,127,128,130,129,128,129,0
6680,130,128,128,128,129,128,130,128,0
6684,130,128,128,127,127,127,126,127,0
6687,128,125,130,128,128,128,128,128,0
6691,129,127,127,126,129,128,127,128,0
6694,127,128,128,128,129,127,127,128,0
6697,128,127,127,127,129,127,126,127,0
6700,128,126,127,128,125,127,127,127,0
6704,129,127,129,128,128,127,129,129,0
6707,128,129,127,127,127,127,127,128,0
6714,126,127,127,128,128,125,130,128,0
6719,130,128,129,128,128,129,128,124,0
6723,122,129,127,128,125,128,128,128,0
6725,130,129,128,125,128,128,130,129,0
6728,130,127,125,126,126,127,128,128,0
6732,128,125,126,128,128,128,129,128,0
6735,122,126,126,127,126,128,129,129,0
6738,129,129,127,127,128,127,126,127,0
6742,129,128,129,128,125,127,125,127,0
6746,131,127,129,128,127,128,127,126,0
6751,123,128,128,128,127,128,126,126,0
6754,132,128,128,127,128,128,126,127,0
6757,129,130,130,128,129,128,128,129,0
6806,128,125,127,128,128,126,126,127,0
6816,127,127,127,127,129,128,128,129,0
6822,131,129,126,128,128,128,128,129,0
6875,130,127,126,126,129,128,129,128,0
6886,129,125,127,127,129,128,127,128,0
6893,125,126,129,128,128,128,127,127,0
6899,123,128,127,127,128,127,127,128,0
6904,129,129,127,126,130,128,129,128,0
6908,129,126,126,128,129,127,127,127,0
6912,129,126,127,128,125,128,128,127,0
6915,122,129,129,129,125,128,129,128,0
6918,131,129,125,127,127,128,128,128,0
6922,130,126,126,128,129,129,129,128,0
6925,127,126,126,126,128,128,129,128,0
6929,129,128,127,128,125,128,128,128,0
6932,129,129,128,126,128,127,125,127,0
6935,128,125,130,129,127,128,128,126,0
6938,124,128,128,127,127,127,128,126,0
6942,123,129,127,128,129,128,127,128,0
6945,129,129,128,125,127,127,126,127,0
6949,128,128,127,128,131,127,126,127,0
6952,127,127,127,128,128,128,128,128,0
6955,130,127,126,126,129,127,129,129,0
6959,129,128,126,126,129,128,129,129,0
6965,129,126,126,129,129,127,128,127,0
6970,129,126,127,128,124,128,127,128,0
6973,128,127,129,128,126,129,126,128,0
6976,126,129,129,126,127,128,126,127,0
6979,128,126,129,128,127,129,128,125,0
6983,122,129,127,128,127,128,128,127,0
6986,124,124,126,127,130,129,128,129,0
6989,130,129,129,125,131,128,128,128,0
6993,131,127,127,126,127,127,128,125,0
6996,128,124,128,128,124,127,126,125,0
7008,127,127,126,126,127,128,126,128,0
7013,128,129,128,128,125,127,128,129,0
7016,128,127,127,128,127,125,129,127,0
7034,123,128,127,128,126,127,129,126,0
7038,123,128,128,129,125,129,129,129,0
7042,129,129,127,126,129,128,128,128,0
7046,130,127,126,128,129,128,129,128,0
7050,129,125,126,126,127,128,127,127,0
7053,127,127,127,127,128,128,126,128,0
7056,128,129,129,128,124,127,127,128,0
7060,128,128,128,128,125,128,129,127,0
7063,128,125,128,128,127,128,127,126,0
7066,122,128,128,128,124,128,128,128,0
7071,130,130,126,127,128,128,128,129,0
7074,129,128,127,127,127,127,127,126,0
7077,125,128,127,128,131,128,129,127,0
7080,128,126,127,128,129,129,129,129,0
7084,129,130,129,128,125,127,126,128,0
7091,129,127,126,128,127,127,127,127,0
7094,122,128,128,129,127,128,128,126,0
7097,123,128,127,129,127,128,126,128,0
7100,130,129,130,128,129,127,126,128,0
7103,129,128,130,127,128,128,128,128,0
7105,128,126,126,129,128,130,126,127,0
7108,126,125,130,129,129,128,128,128,0
7111,129,128,127,127,128,128,129,128,0
7114,128,127,126,128,126,128,127,128,0
7143,126,125,129,127,127,128,128,126,0
7149,122,128,127,128,127,127,126,129,0
7155,129,129,126,126,128,128,128,128,0
7161,131,128,127,125,128,128,128,128,0
7166,131,127,128,128,126,126,130,128,0
7213,128,123,127,128,129,128,129,128,0
7224,128,128,126,128,128,128,128,129,0
7233,129,128,129,128,125,127,127,126,0
7241,127,125,126,128,123,127,127,126,0
7248,123,128,126,128,126,127,128,126,0
7253,123,129,128,128,128,128,127,128,0
7259,130,128,128,126,128,128,127,127,0
7263,130,127,127,126,129,128,131,127,0
7267,128,126,128,128,129,127,128,127,0
7271,129,127,127,129,129,128,128,128,0
7274,130,127,126,127,129,127,128,128,0
7277,125,126,125,127,129,128,127,128,0
7281,129,124,125,130,127,128,127,125,0
7286,123,128,129,128,124,128,128,129,0
7290,129,128,128,126,129,127,128,128,0
7293,129,126,126,128,129,128,128,127,0
7297,130,126,127,126,129,128,129,129,0
7300,130,127,125,127,126,127,126,128,0
7304,128,129,128,128,127,127,126,128,0
7307,128,126,127,126,129,126,127,128,0
7310,127,125,127,129,126,128,128,125,0
7313,121,130,128,128,127,127,127,128,0
7316,129,129,127,128,129,128,128,128,0
7319,130,127,126,128,128,128,131,128,0
7327,129,126,126,129,131,128,126,126,0
7330,129,128,129,127,127,127,125,127,0
7339,123,129,128,129,126,128,127,126,0
7336,128,130,129,126,129,126,127,126,0
7343,124,128,128,128,128,129,126,127,0
7346,125,126,127,128,130,128,129,128,0
7350,131,129,127,127,131,128,129,128,0
7353,130,128,127,128,128,126,127,128,0
7356,131,126,126,126,131,128,131,128,0
7359,129,127,126,127,127,128,129,129,0
7363,130,128,126,127,126,127,127,128,0
7367,128,128,128,126,123,127,127,127,0
7370,130,127,127,128,126,127,129,126,0
7373,122,127,127,129,126,127,127,128,0
7376,129,129,128,126,129,128,129,128,0
7378,131,128,126,127,127,127,128,128,0
7382,130,126,128,127,124,128,128,128,0
7385,127,125,126,127,127,128,129,128,0
7389,129,128,127,127,127,128,127,128,0
7395,128,129,128,128,126,127,127,127,0
7398,130,127,127,128,128,128,128,125,0
7401,122,127,127,129,126,127,127,127,0
7404,123,129,127,127,129,128,129,129,0
7408,131,127,126,127,127,128,127,128,0
7411,130,125,126,125,128,128,126,128,0
7413,126,127,130,128,128,126,127,128,0
7416,129,130,131,128,129,128,127,128,0
7419,129,128,130,128,125,127,127,128,0
7422,126,127,126,128,127,127,127,125,0
7427,123,128,127,128,127,128,126,127,0
7431,123,129,128,128,130,128,127,127,0
7434,130,128,126,128,131,128,128,127,0
7437,130,128,127,126,126,127,126,127,0
7440,127,126,130,128,128,127,127,128,0
7443,129,129,129,127,128,127,125,128,0
7446,128,128,128,128,125,126,127,126,0
7450,123,128,127,128,127,128,128,126,0
7454,124,127,128,128,128,126,127,127,0
7458,131,128,129,126,128,128,127,129,0
7461,131,129,128,128,129,127,126,127,0
7465,128,127,128,127,128,128,126,127,0
7468,128,125,129,128,129,128,127,128,0
7471,130,127,127,128,128,128,127,129,0
7474,130,128,126,127,125,127,128,129,0
7477,130,127,127,129,128,128,128,127,0
7481,128,126,128,127,127,127,126,126,0
7485,123,129,128,128,128,128,127,128,0
7491,130,128,129,127,129,128,129,129,0
7495,129,127,125,127,127,127,130,128,0
7499,128,125,126,126,129,128,129,128,0
7502,129,127,126,127,125,127,127,128,0
7504,128,129,127,128,128,127,127,127,0
7508,128,126,127,128,128,126,127,126,0
7511,122,128,128,128,127,127,127,126,0
7514,122,128,129,129,125,127,128,128,0
7516,130,129,128,128,128,127,127,127,0
7520,128,128,127,128,126,127,126,126,0
7523,128,126,128,128,129,128,129,127,0
7526,129,127,126,126,128,127,128,128,0
7528,129,128,127,128,128,127,126,127,0
7531,128,127,129,128,126,127,127,126,0
7534,123,128,127,129,127,128,128,127,0
7537,123,128,128,128,132,130,129,129,0
7540,130,129,126,127,129,129,131,129,0
7543,130,127,126,127,127,128,127,128,0
7547,130,125,130,128,127,127,127,128,0
7551,129,127,127,128,127,127,127,128,0
7554,128,129,128,127,128,126,126,128,0
7557,128,128,128,126,128,127,127,127,0
7561,122,127,128,129,128,127,128,127,0
7564,123,128,128,128,128,127,127,127,0
7567,128,129,128,126,128,128,126,127,0
7570,131,128,128,128,127,126,127,127,0
7573,131,127,128,128,126,127,127,128,0
7577,128,126,126,128,129,129,129,129,0
7584,128,129,126,128,127,126,127,129,0
7587,129,128,128,128,126,127,127,128,0
7590,122,128,128,129,127,128,126,127,0
7594,122,128,128,128,128,128,127,127,0
7596,130,128,127,128,129,128,128,128,0
7599,131,128,130,126,127,127,126,127,0
7602,130,126,129,128,129,127,128,127,0
7605,127,125,126,127,127,128,129,128,0
7608,130,128,127,127,127,128,126,128,0
7612,129,128,129,129,126,127,127,127,0
7615,122,129,127,129,125,128,128,126,0
7620,123,128,128,128,126,126,127,128,0
7622,128,130,131,128,128,128,126,127,0
7631,129,129,127,128,129,129,129,129,0
7635,129,125,126,127,127,128,128,128,0
7642,128,126,127,128,125,128,128,128,0
7645,129,129,127,128,127,127,125,128,0
7649,129,129,127,126,128,127,127,127,0
7652,126,127,128,128,128,127,126,127,0
7657,127,126,127,128,129,128,127,127,0
7660,123,129,128,129,126,127,126,127,0
7663,123,129,128,128,127,128,128,127,0
7666,123,128,128,127,128,128,128,126,0
7670,124,123,126,127,132,128,128,128,0
7673,129,129,128,127,128,127,127,128,0
7676,130,129,127,127,130,128,128,128,0
7679,131,128,128,128,127,126,127,127,0
7683,128,125,128,126,127,127,127,127,0
7686,128,128,128,128,129,128,128,129,0
7691,129,128,127,126,129,128,128,129,0
7696,129,126,126,128,128,127,128,127,0
7702,128,128,128,127,128,128,127,128,0
7699,128,127,128,128,125,127,126,127,0
7705,127,128,128,129,126,126,126,127,0
7709,127,127,129,128,126,126,129,125,0
7712,123,128,128,128,128,128,128,125,0
7715,122,128,128,126,128,128,127,128,0
7718,129,128,127,128,130,127,129,128,0
7724,130,127,126,126,126,128,130,128,0
7727,129,126,126,128,129,129,129,128,0
7730,129,127,127,126,129,128,129,129,0
7733,130,129,126,127,126,127,127,128,0
7737,129,127,127,129,126,127,127,126,0
7740,123,128,128,129,128,127,127,126,0
7743,122,128,129,128,128,129,127,128,0
7747,130,129,128,128,129,128,129,128,0
7751,131,127,126,127,128,127,131,128,0
7754,130,126,126,126,127,127,128,128,0
7758,128,126,128,128,126,128,127,128,0
7762,128,129,131,128,128,125,126,128,0
7765,128,128,129,128,127,127,126,127,0
7768,128,126,128,127,125,128,128,126,0
7771,122,128,130,128,127,126,127,128,0
7775,129,129,126,126,129,128,129,128,0
7778,129,128,127,127,126,128,130,127,0
7782,130,125,126,127,126,128,130,127,0
7785,129,126,127,128,125,127,126,128,0
7790,128,130,129,128,128,127,127,128,0
7794,130,128,126,126,129,128,128,127,0
7800,129,127,128,129,128,128,127,126,0
7802,123,129,129,129,127,128,128,127,0
7806,123,128,130,128,129,127,127,128,0
7810,130,129,126,128,130,127,129,127,0
7814,126,126,127,128,124,129,128,127,0
7816,128,127,127,126,128,128,130,129,0
7819,130,128,127,126,128,128,128,128,0
7823,129,127,126,126,129,128,129,128,0
7825,124,126,126,127,129,129,129,127,0
7828,124,127,127,129,127,128,128,126,0
7831,123,126,129,128,130,128,128,129,0
7834,128,128,126,126,129,129,129,128,0
7837,128,126,126,128,128,127,127,126,0
7841,123,128,128,127,128,128,127,127,0
7844,123,128,130,127,129,128,127,128,0
7848,130,129,126,127,131,128,128,128,0
7851,128,126,126,126,131,128,129,128,0
7854,129,125,126,125,128,128,128,128,0
7859,129,128,127,126,129,128,127,129,0
7863,130,128,126,127,127,127,127,128,0
7866,130,125,127,128,130,126,127,126,0
7869,122,129,127,128,127,127,126,127,0
7872,123,128,128,127,127,127,126,128,0
7875,130,128,127,126,127,128,130,128,0
7879,129,126,127,127,127,127,126,127,0
7885,130,126,127,128,128,129,128,128,0
7891,130,128,126,126,129,127,129,128,0
7895,130,128,126,127,126,127,128,128,0
7901,128,128,129,128,127,127,127,126,0
7904,123,127,128,129,127,128,128,126,0
7907,124,124,128,128,128,128,130,129,0
7910,130,128,126,126,127,128,128,128,0
7914,129,128,128,128,128,126,126,126,0
7917,129,127,128,128,128,127,128,127,0
7920,127,127,127,126,129,128,130,129,0
7923,128,128,126,127,126,128,129,128,0
7930,128,127,127,127,127,126,127,127,0
7935,123,128,128,129,128,127,127,127,0
7939,123,129,127,126,131,129,129,129,0
7942,130,129,128,127,128,127,126,128,0
7945,129,128,128,128,127,127,126,127,0
7949,126,126,128,128,127,128,128,125,0
7953,123,128,128,128,129,130,129,129,0
7957,130,129,126,128,129,127,128,128,0
7960,130,128,127,127,128,127,127,127,0
7964,129,127,126,128,129,127,129,128,0
7967,129,126,126,127,127,128,126,128,0
7970,128,129,129,128,126,126,126,128,0
7973,128,127,126,127,128,126,127,127,0
7976,129,127,129,129,126,127,127,126,0
7980,122,128,128,129,127,128,126,129,0
7983,131,129,128,127,128,128,127,127,0
7986,129,128,129,127,128,127,128,128,0
7989,128,126,126,126,129,128,128,128,0
7992,127,126,127,128,129,127,128,128,0
7995,129,128,127,126,129,126,128,129,0
7998,127,128,126,128,127,128,127,126,0
8002,123,127,128,128,127,127,129,126,0
8007,122,127,127,129,126,128,128,128,0
8010,130,130,128,127,129,128,127,128,0
8013,128,127,126,127,129,129,129,128,0
8016,128,126,126,128,128,128,127,127,0
8019,127,126,126,127,128,128,129,129,0
8022,130,129,127,128,127,127,128,128,0
8024,129,127,127,128,126,127,128,127,0
8027,127,127,128,128,126,128,128,126,0
8030,122,128,128,127,127,128,127,126,0
8032,123,128,129,127,128,128,126,128,0
8035,130,129,129,126,129,127,126,125,0
8037,125,127,129,128,129,126,127,126,0
8040,123,126,128,128,127,127,127,127,0
8043,123,126,128,128,128,128,127,128,0
8045,131,129,128,127,128,128,127,128,0
8048,131,128,126,128,132,127,130,127,0
8051,130,125,126,126,129,128,129,129,0
8054,128,129,127,128,128,128,128,129,0
8059,130,128,127,127,125,126,127,129,0
8062,129,127,127,128,128,125,127,125,0
8066,123,128,127,127,127,129,128,127,0
8069,123,126,128,126,128,128,126,128,0
8071,130,128,127,126,125,127,127,129,0
8074,129,127,127,127,126,127,127,127,0
8077,124,126,127,128,127,127,126,127,0
8081,128,129,129,128,128,128,127,128,0
8085,129,128,128,127,129,128,125,128,0
8089,130,127,130,130,127,128,127,126,0
8091,124,128,129,128,127,128,127,126,0
8096,123,129,128,127,128,129,127,128,0
8102,132,129,127,126,128,128,127,128,0
8107,129,127,126,128,131,128,129,128,0
8109,127,126,126,129,127,127,128,128,0
8112,130,128,125,127,128,128,129,129,0
8115,129,128,128,128,127,126,126,128,0
8118,129,126,128,128,126,126,128,128,0
8122,126,125,129,129,127,128,129,127,0
8125,122,129,129,129,125,129,128,129,0
8128,130,129,126,127,127,127,128,128,0
8132,129,127,127,127,126,127,127,127,0
8136,127,126,128,128,126,127,126,127,0
8138,128,128,129,126,127,128,127,128,0
8141,127,129,127,126,129,129,128,129,0
8146,130,128,126,128,123,127,127,125,0
8149,123,128,127,128,126,128,127,125,0
8152,123,127,128,126,127,128,128,129,0
8155,129,129,126,127,127,127,127,127,0
8158,129,128,128,128,126,126,127,127,0
8161,128,127,128,127,127,127,127,127,0
8164,127,127,130,129,127,127,127,128,0
8167,128,128,127,127,126,128,129,129,0
8170,129,127,128,126,128,128,128,127,0
8174,124,127,129,128,126,128,128,126,0
8176,122,128,129,128,127,128,126,127,0
8179,130,128,125,127,127,128,128,128,0
8182,130,128,128,127,126,127,126,127,0
8185,127,127,129,128,131,126,128,128,0
8188,128,126,126,126,129,128,129,129,0
8191,128,129,127,127,128,127,127,127,0
8196,128,128,129,128,128,127,128,125,0
8201,123,129,128,129,128,127,129,126,0
8205,124,127,128,128,126,128,127,128,0
8208,130,129,129,128,129,127,127,128,0
8211,127,129,129,127,128,127,127,127,0
8214,128,127,128,128,129,127,127,126,0
8216,123,126,128,128,124,128,129,128,0
8220,131,129,127,126,128,128,129,128,0
8223,130,128,126,127,130,128,130,128,0
8226,130,123,127,128,125,127,127,127,0
8234,128,125,126,126,128,128,128,128,0
8241,128,128,127,128,127,128,127,128,0
8244,130,128,126,127,128,126,129,127,0
8248,124,129,127,127,128,129,127,126,0
8252,124,128,126,128,126,126,129,128,0
8255,129,129,130,127,125,128,128,128,0
8258,131,128,125,126,129,128,128,128,0
8261,131,126,128,128,130,128,128,128,0
8264,128,125,127,128,129,127,128,129,0
8267,129,128,127,126,129,128,128,129,0
8270,127,129,126,128,127,128,130,128,0
8274,129,128,129,128,125,127,128,126,0
8277,123,127,128,128,126,127,128,127,0
8279,122,128,127,127,131,128,130,129,0
8282,130,128,126,127,127,128,128,128,0
8285,129,127,127,127,127,127,129,128,0
8288,122,127,127,128,128,128,126,127,0
8291,129,128,128,127,129,126,126,128,0
8294,128,129,129,128,127,127,126,128,0
8298,130,127,128,128,126,127,127,126,0
8303,123,127,127,129,128,128,127,126,0
8309,123,128,127,126,129,128,128,129,0
8314,129,128,126,127,127,128,128,128,0
8318,129,127,126,127,126,128,128,128,0
8320,128,126,127,128,126,126,128,128,0
8323,128,128,129,128,127,128,126,128,0
8327,128,129,130,128,127,127,126,128,0
8330,130,127,128,128,124,128,128,126,0
8333,123,128,128,128,125,128,128,126,0
8336,123,128,128,127,126,127,127,127,0
8339,130,129,129,127,127,128,128,128,0
8343,131,128,127,128,129,127,127,128,0
8346,130,125,126,128,128,127,128,127,0
8350,129,127,128,128,129,128,127,128,0
8353,129,128,127,128,129,128,129,129,0
8357,129,127,127,129,125,126,128,126,0
8361,124,128,127,128,126,127,127,126,0
8363,123,129,127,127,132,129,128,129,0
8367,129,129,130,126,128,128,127,127,0
8370,130,128,126,127,131,129,127,128,0
8373,127,127,127,128,131,128,129,128,0
8377,127,127,127,127,126,127,127,127,0
8381,128,129,130,128,128,127,128,128,0
8384,128,128,128,127,127,127,127,128,0
8387,128,126,126,127,131,127,127,126,0
8389,122,128,129,129,126,127,127,127,0
8393,129,129,126,126,130,128,129,129,0
8398,129,128,126,127,128,128,128,128,0
8400,128,127,129,128,124,126,127,125,0
8403,126,126,127,128,126,127,127,127,0
8406,127,129,128,128,129,127,128,128,0
8410,130,127,127,128,131,125,128,128,0
8417,129,126,127,127,127,128,127,126,0
8421,122,127,127,128,128,127,126,126,0
8424,124,130,127,127,130,128,128,128,0
8427,129,129,129,127,127,127,127,127,0
8431,129,126,126,127,128,126,127,128,0
8433,128,124,127,126,125,128,126,127,0
8436,128,129,128,128,126,127,125,127,0
8439,130,130,127,127,127,128,128,127,0
8442,126,127,127,128,128,128,127,126,0
8446,123,128,128,128,127,128,128,126,0
8450,123,126,130,127,129,128,128,128,0
8453,130,129,128,128,129,128,127,127,0
8455,128,127,127,128,127,127,128,127,0
8458,125,126,127,128,129,128,129,129,0
8461,129,128,127,126,129,127,128,128,0
8464,130,127,126,127,127,127,128,128,0
8467,128,127,127,128,124,128,129,128,0
8470,125,127,126,129,128,127,127,126,0
8473,125,126,127,127,129,128,129,129,0
8477,129,127,126,127,128,128,130,129,0
8480,129,126,129,128,127,128,127,126,0
8483,123,127,128,128,127,128,127,128,0
8487,132,128,128,126,127,128,130,129,0
8490,130,128,127,126,128,127,127,127,0
8494,130,128,129,128,128,128,129,128,0
8496,127,126,126,126,128,127,129,129,0
8500,126,127,126,129,129,129,127,128,0
8504,129,128,127,128,127,128,126,128,0
8507,127,128,128,127,123,127,129,128,0
8512,126,127,127,129,127,127,128,127,0
8517,129,128,127,129,129,128,128,128,0
8521,129,129,128,128,126,126,127,126,0
8524,123,129,128,128,127,128,127,126,0
8526,124,127,127,128,127,128,128,127,0
8530,123,126,129,127,129,128,127,129,0
8532,131,129,126,127,128,128,126,128,0
8538,128,128,127,128,129,127,128,128,0
8541,128,125,126,127,130,128,128,128,0
8544,127,127,127,127,127,127,127,128,0
8548,128,129,129,128,126,126,126,128,0
8551,128,128,127,128,131,128,127,129,0
8554,127,126,126,128,126,127,128,126,0
8557,125,127,127,127,132,127,126,129,0
8561,128,130,128,128,128,129,129,128,0
8564,128,127,126,128,128,128,126,128,0
8566,130,127,129,129,127,127,128,126,0
8569,122,128,128,128,127,128,127,126,0
8572,128,129,126,127,127,129,129,128,0
8576,129,128,128,127,127,126,127,126,0
8580,128,125,128,127,127,127,127,126,0
8583,123,128,127,127,127,128,127,129,0
8586,131,129,126,127,128,128,130,129,0
8589,130,127,126,125,129,128,130,128,0
8592,129,126,126,127,129,128,127,127,0
8597,129,125,126,127,128,128,129,129,0
8601,128,129,127,128,126,128,127,128,0
8604,128,128,128,127,127,128,128,128,0
8606,129,128,128,129,125,128,127,125,0
8611,123,128,128,128,126,128,127,128,0
8616,131,129,130,126,129,128,128,128,0
8623,129,128,128,128,127,127,128,127,0
8627,130,125,127,128,125,127,129,128,0
8630,127,123,127,129,129,129,129,128,0
8634,128,129,126,127,126,128,128,129,0
8637,124,126,127,127,129,126,127,128,0
8640,127,128,128,128,128,128,126,127,0
8644,129,126,126,129,127,128,128,126,0
8647,123,130,129,127,126,127,127,129,0
8651,131,128,131,128,129,127,128,128,0
8654,125,128,129,127,127,127,128,126,0
8657,123,127,128,127,127,128,129,126,0
8660,123,129,128,128,128,128,127,128,0
8664,131,129,128,128,130,128,128,128,0
8666,129,126,126,127,128,128,130,128,0
8673,129,128,129,128,128,128,126,128,0
8670,129,126,126,127,127,127,127,128,0
8677,129,128,129,126,129,128,126,128,0
8680,127,127,128,128,126,125,126,127,0
8683,122,128,127,128,126,127,127,127,0
8688,122,129,128,128,129,128,126,128,0
8691,129,128,126,128,130,127,128,129,0
8694,129,126,126,126,127,127,128,128,0
8697,130,126,127,127,128,128,127,128,0
8700,128,128,128,128,129,127,127,128,0
8704,129,127,128,128,127,127,127,128,0
8708,128,126,128,129,129,128,126,127,0
8711,127,128,127,129,127,128,128,127,0
8716,123,129,128,128,125,127,127,128,0
8720,131,129,127,128,132,128,129,129,0
8724,130,127,125,128,129,128,130,128,0
8729,129,125,126,127,126,127,128,129,0
8736,129,127,126,126,131,127,128,128,0
8742,129,130,128,126,129,128,127,127,0
8745,129,128,129,129,127,126,127,127,0
8749,123,128,127,127,127,128,128,126,0
8753,123,128,129,128,126,127,126,128,0
8755,129,130,129,126,128,128,127,128,0
8758,129,127,127,128,131,127,128,128,0
8762,129,126,127,128,128,128,129,128,0
8765,129,127,127,126,126,128,127,128,0
8768,129,129,129,128,125,126,126,128,0
8771,129,128,127,127,126,128,130,127,0
8774,123,128,128,128,126,127,127,125,0
8778,123,128,128,128,125,128,127,128,0
8781,130,129,128,128,128,128,126,127,0
8784,129,128,129,128,129,127,128,128,0
8787,130,124,129,128,128,128,130,127,0
8792,129,127,127,128,125,128,128,129,0
8796,130,129,127,127,126,127,127,127,0
8800,129,128,129,128,125,127,126,127,0
8803,128,126,129,129,127,128,127,126,0
8806,122,127,127,128,127,127,126,128,0
8809,130,129,126,125,130,129,128,129,0
8813,130,128,128,127,129,128,126,127,0
8817,130,125,128,126,126,126,126,127,0
8820,126,127,128,128,129,127,127,128,0
8823,127,129,128,126,128,127,129,128,0
8827,130,128,128,128,128,125,126,127,0
8831,123,128,129,129,127,127,127,126,0
8835,123,128,128,128,127,128,127,128,0
8846,129,130,130,128,129,128,127,128,0
8849,129,128,129,127,129,128,129,128,0
8852,130,127,128,127,127,126,130,127,0
8856,130,124,127,128,128,127,127,128,0
8859,130,129,125,127,127,128,129,129,0
8863,130,128,127,128,127,126,127,127,0
8866,127,126,128,128,127,129,128,126,0
8870,124,128,128,129,125,128,127,127,0
8873,129,128,128,127,129,128,128,129,0
8876,130,128,127,128,129,128,127,127,0
8879,129,127,128,127,128,128,129,128,0
8882,128,125,127,127,128,127,127,127,0
8884,128,129,129,127,127,127,127,127,0
8888,130,129,128,126,128,128,129,128,0
8891,123,126,128,129,127,127,127,127,0
8894,123,128,127,128,128,127,128,126,0
8898,124,125,127,128,130,128,127,127,0
8901,130,129,130,128,129,127,127,129,0
8904,129,127,126,128,131,130,130,127,0
8906,129,126,126,128,125,127,127,127,0
8910,127,128,128,126,127,128,127,128,0
8913,130,129,128,128,128,128,127,129,0
8917,129,126,127,129,129,128,127,128,0
8921,129,127,129,129,124,127,128,128,0
8924,129,128,129,128,127,128,127,128,0
8928,128,129,128,129,128,127,128,128,0
8932,128,126,126,127,127,126,127,126,0
8936,123,127,127,127,127,128,127,126,0
8940,122,129,127,127,127,127,127,129,0
8944,130,129,126,126,128,128,130,129,0
8947,129,127,126,127,126,128,128,127,0
8951,123,126,128,128,127,128,127,126,0
8955,123,127,128,127,128,129,128,129,0
8960,130,129,126,126,126,128,130,129,0
8966,131,126,125,126,128,130,127,127,0
8970,130,126,128,128,126,126,126,127,0
8973,129,128,128,127,130,128,127,128,0
8977,128,128,126,126,129,128,128,129,0
8980,129,126,126,126,129,128,129,128,0
8983,129,126,128,128,124,127,127,126,0
8985,122,129,128,129,127,128,127,128,0
8988,131,129,128,127,128,128,128,128,0
8992,130,127,127,125,129,128,130,128,0
8995,126,128,128,126,126,127,129,128,0
8999,122,128,127,128,127,128,127,126,0
9001,123,129,127,127,126,129,128,129,0
9004,128,129,127,127,124,127,128,127,0
9007,129,124,130,128,125,129,129,128,0
9011,128,126,126,127,127,127,128,128,0
9014,128,130,129,128,128,126,126,127,0
9017,129,129,128,129,126,127,129,126,0
9021,124,128,128,128,128,129,128,124,0
9023,121,129,127,128,125,128,128,128,0
9027,128,128,127,127,128,127,127,128,0
9030,131,128,130,126,129,128,128,128,0
9033,129,126,126,128,128,128,129,128,0
9036,128,126,128,127,127,126,128,128,0
9038,129,129,128,128,127,128,127,128,0
9041,128,128,127,126,128,128,129,129,0
9044,125,126,127,127,127,127,127,125,0
9046,122,127,128,129,127,127,127,128,0
9049,124,127,126,127,129,129,130,129,0
9053,130,128,126,126,130,127,127,127,0
9058,126,127,127,127,129,125,128,127,0
9061,128,126,127,128,127,127,127,128,0
9065,128,129,128,128,126,128,127,128,0
9067,128,129,129,126,129,128,127,128,0
9071,128,127,129,127,123,127,127,126,0
9075,123,128,128,128,126,128,127,126,0
9078,123,129,127,128,129,128,129,128,0
9081,131,128,126,127,128,128,128,127,0
9084,130,126,126,127,127,130,130,127,0
9087,128,125,126,128,126,128,127,126,0
9089,122,130,128,128,127,128,126,128,0
9092,129,129,129,127,127,127,127,128,0
9095,130,128,128,128,126,127,127,127,0
9100,127,127,129,128,131,128,128,128,0
9103,129,128,125,127,127,128,129,129,0
9106,130,129,128,128,127,126,126,127,0
9109,128,128,128,129,125,127,126,127,0
9112,126,126,127,128,128,129,127,128,0
9118,125,128,128,128,127,128,125,127,0
9122,128,130,128,127,127,127,127,126,0
9126,123,128,129,129,127,128,127,126,0
9129,123,128,130,127,127,128,127,126,0
9131,123,129,128,127,131,130,131,129,0
9134,131,128,126,125,129,127,129,127,0
9137,132,128,130,126,128,127,127,128,0
9143,128,125,126,128,129,130,129,128,0
9146,130,127,126,126,129,129,128,128,0
9149,130,128,126,126,128,128,128,128,0
9152,129,127,126,128,124,128,127,128,0
9155,124,124,129,129,126,128,126,127,0
9160,123,128,129,129,126,126,126,128,0
9166,130,130,130,126,129,128,127,127,0
9169,129,128,130,128,130,125,127,128,0
9173,129,127,129,128,128,126,128,128,0
9176,129,127,129,128,128,127,126,128,0
9180,129,129,127,126,129,128,129,128,0
9182,127,127,126,127,129,128,128,127,0
9185,123,127,127,127,127,128,128,126,0
9188,123,128,128,128,129,128,128,128,0
9191,131,128,126,126,128,128,130,129,0
9194,129,126,126,128,127,127,127,127,0
9197,130,127,127,127,127,127,128,128,0
9201,125,125,126,126,129,129,128,129,0
9205,128,129,126,128,128,128,126,127,0
9208,127,128,128,128,129,127,129,126,0
9211,130,127,131,129,127,127,127,127,0
9214,122,128,128,128,127,128,126,128,0
9218,130,129,130,128,129,128,126,128,0
9221,129,127,128,128,125,127,127,127,0
9223,130,128,128,128,129,128,128,125,0
9226,122,128,128,129,126,127,127,127,0
9231,128,129,126,126,128,128,127,129,0
9234,131,129,128,128,129,128,127,128,0
9237,128,127,125,127,126,127,128,128,0
9243,128,126,126,127,127,128,127,129,0
9245,129,128,128,127,127,127,126,128,0
9249,129,129,128,128,129,129,127,127,0
9253,129,127,128,129,124,128,127,126,0
9255,122,128,128,128,126,126,127,127,0
9258,122,130,128,128,127,127,128,128,0
9261,130,129,129,128,130,128,129,128,0
9267,130,125,125,127,126,128,131,126,0
9273,126,126,126,127,126,127,128,128,0
9276,130,128,128,128,126,127,126,128,0
9279,129,128,127,128,125,127,125,127,0
9282,127,126,129,128,126,128,127,126,0
9285,124,128,127,129,127,127,126,126,0
9288,131,128,127,127,128,128,127,128,0
9291,130,129,128,127,127,128,127,128,0
9294,130,127,128,126,124,128,131,127,0
9300,130,125,129,128,131,128,129,128,0
9305,130,128,127,127,124,127,125,128,0
9314,128,129,129,128,128,127,127,128,0
9317,125,127,128,129,126,128,127,126,0
9320,123,128,127,128,126,128,128,126,0
9323,123,125,128,127,127,128,127,128,0
9326,129,129,129,126,127,128,126,127,0
9329,131,126,127,128,129,126,126,127,0
9332,128,126,127,128,126,128,126,127,0
9336,128,128,128,128,128,127,126,128,0
9339,129,129,128,127,128,128,128,128,0
9342,128,127,128,128,127,128,128,127,0
9345,129,126,128,128,126,128,128,126,0
9349,122,129,128,129,124,128,126,128,0
9352,129,129,127,127,127,127,127,128,0
9355,131,127,130,128,127,126,126,127,0
9358,123,125,126,128,124,129,128,129,0
9362,127,127,126,127,128,128,128,128,0
9365,128,130,129,127,124,127,126,128,0
9369,127,128,127,129,126,127,127,127,0
9371,123,128,128,129,127,127,128,125,0
9375,124,128,127,128,127,126,127,128,0
9380,130,128,126,127,128,128,128,128,0
9385,129,128,127,125,129,127,126,126,0
9389,128,124,130,128,126,127,127,127,0
9392,124,126,126,125,130,129,129,128,0
9395,130,128,126,126,128,128,129,129,0
9398,128,128,126,127,126,127,127,127,0
9400,130,126,127,127,127,128,127,127,0
9403,123,129,128,128,126,127,126,129,0
9406,130,129,126,127,128,129,129,128,0
9409,131,128,127,128,128,127,126,127,0
9413,127,126,129,128,127,126,129,128,0
9417,124,127,129,127,127,127,126,127,0
9421,128,129,129,128,129,128,128,128,0
9425,129,128,128,128,126,126,127,127,0
9427,128,126,129,129,128,128,127,125,0
9431,123,127,127,129,127,128,127,127,0
9434,131,130,130,128,129,128,127,127,0
9436,129,128,128,128,130,128,129,128,0
9439,129,126,126,127,126,128,129,127,0
9445,125,126,126,126,129,128,128,128,0
9450,130,127,127,128,128,128,129,129,0
9454,130,128,126,127,128,128,129,128,0
9458,127,125,128,128,126,127,127,124,0
9462,123,128,127,129,126,129,127,127,0
9465,123,129,127,127,129,127,127,127,0
9468,131,129,128,128,130,129,129,128,0
9470,128,126,126,127,129,129,131,127,0
9473,125,126,126,128,131,128,130,129,0
9478,130,128,128,128,129,128,127,128,0
9481,129,128,126,126,128,128,129,129,0
9484,125,127,128,128,126,128,127,125,0
9490,123,127,128,128,127,128,127,126,0
9496,125,129,130,128,128,127,126,127,0
9501,131,129,128,128,127,127,127,127,0
9505,130,127,129,128,128,126,126,127,0
9508,127,125,128,127,126,128,127,127,0
9511,128,128,128,128,127,129,126,128,0
9514,127,129,127,128,128,127,128,129,0
9517,127,126,128,128,125,128,126,128,0
9520,127,125,128,129,128,128,128,126,0
9524,123,128,128,128,125,129,128,128,0
9527,130,129,130,127,126,128,127,128,0
9530,130,127,127,127,128,129,129,126,0
9534,125,128,128,128,129,128,128,128,0
9537,128,127,126,127,128,129,129,130,0
9540,129,129,127,128,126,128,128,128,0
9544,129,127,128,129,127,127,127,125,0
9549,123,127,129,128,127,127,127,127,0
9552,122,127,127,127,128,128,128,128,0
9555,131,129,128,128,127,127,127,127,0
9559,129,127,127,127,127,126,127,128,0
9562,130,127,127,128,128,125,126,127,0
9565,129,128,128,126,128,126,126,128,0
9572,128,127,127,127,129,127,127,127,0
9568,127,130,129,128,127,128,126,128,0
9574,127,126,127,128,126,128,128,127,0
9578,122,129,127,129,127,127,126,128,0
9581,130,130,128,128,129,127,127,127,0
9584,131,127,128,128,129,128,126,127,0
9587,128,124,126,128,129,126,127,127,0
9592,127,128,128,128,127,128,126,128,0
9595,127,130,129,128,127,126,127,128,0
9600,128,127,127,128,129,126,126,127,0
9605,129,126,128,128,125,128,129,127,0
9610,129,126,127,128,128,129,128,129,0
9612,128,129,128,128,129,128,127,127,0
9615,127,129,128,129,127,129,127,123,0
9618,121,129,128,128,128,129,127,125,0
9620,121,129,127,127,126,127,126,128,0
9623,129,130,130,127,128,128,127,128,0
9627,130,127,128,127,128,127,127,127,0
9630,128,126,128,127,128,126,126,127,0
9633,127,125,128,128,128,127,127,128,0
9636,129,129,128,128,127,126,126,127,0
9640,128,129,131,128,126,126,126,127,0
9643,130,128,129,127,126,127,127,126,0
9646,122,128,128,128,126,127,125,126,0
9649,130,129,126,128,129,128,128,128,0
9653,131,128,126,126,127,130,130,128,0
9655,130,126,128,129,126,126,127,127,0
9658,124,126,127,128,127,127,127,128,0
9661,128,129,130,127,128,128,127,127,0
9664,129,129,129,128,129,128,128,128,0
9667,130,125,127,127,128,127,126,127,0
9670,127,126,127,128,129,128,129,128,0
9674,129,128,126,127,127,128,128,129,0
9678,130,127,126,129,125,126,127,126,0
9681,123,129,128,128,127,128,129,127,0
9684,123,127,127,129,128,128,127,127,0
9688,131,128,128,127,128,128,125,128,0
9691,131,129,128,128,129,128,129,129,0
9694,129,126,126,125,128,128,127,127,0
9698,128,126,127,128,129,127,128,128,0
9702,130,128,126,126,128,128,128,129,0
9708,129,129,129,126,128,127,126,127,0
9711,129,126,127,128,127,127,128,128,0
9715,129,126,127,128,128,125,129,128,0
9718,128,127,126,127,128,128,127,128,0
9721,128,129,127,128,128,128,129,128,0
9724,123,128,128,128,127,127,128,126,0
9728,123,128,126,127,127,128,128,127,0
9731,123,125,128,126,128,128,128,128,0
9734,130,128,127,127,128,128,126,127,0
9737,129,126,128,128,128,130,127,126,0
9741,128,125,127,127,128,126,126,127,0
9745,130,128,129,128,128,128,125,128,0
9750,128,130,129,128,127,128,127,128,0
9754,127,126,128,128,128,127,127,127,0
9758,127,125,128,128,126,128,127,124,0
9762,122,128,129,128,122,131,130,129,0
9766,129,129,127,127,127,127,127,128,0
9770,130,127,126,128,129,128,130,128,0
9773,129,126,125,127,127,128,129,129,0
9777,128,128,126,127,127,128,128,129,0
9780,130,128,127,127,128,129,126,127,0
9783,128,129,128,128,123,127,127,125,0
9788,123,128,127,128,127,128,128,125,0
9791,124,127,128,128,128,128,127,127,0
9794,129,129,127,127,127,128,127,128,0
9797,129,128,127,127,125,127,127,127,0
9801,128,123,127,126,129,129,128,128,0
9804,128,125,126,128,131,128,129,129,0
9810,128,129,126,127,126,128,128,128,0
9813,128,128,128,127,129,127,127,128,0
9818,129,126,127,127,125,127,127,127,0
9822,128,125,127,128,129,127,126,127,0
9826,128,129,129,128,128,127,127,126,0
9830,123,129,128,128,126,127,127,126,0
9833,124,128,128,128,127,128,129,126,0
9839,124,127,128,128,130,129,129,128,0
9842,131,128,127,127,129,128,127,128,0
9845,130,128,126,125,127,127,129,126,0
9849,130,126,127,127,127,126,127,127,0
9851,128,125,128,128,128,127,128,128,0
9855,130,129,126,127,127,127,126,128,0
9857,128,128,131,127,128,126,127,128,0
9860,127,124,129,128,126,126,127,128,0
9863,124,126,128,129,126,127,127,127,0
9871,122,130,129,129,126,126,129,129,0
9875,130,127,126,126,131,129,131,129,0
9877,129,126,127,128,131,130,129,128,0
9882,128,124,129,128,129,128,127,128,0
9885,128,129,127,128,128,129,127,129,0
9888,129,128,127,127,127,128,128,127,0
9892,129,128,129,129,127,127,127,126,0
9895,123,127,127,127,129,127,127,126,0
9898,130,128,126,127,131,128,128,128,0
9901,130,127,125,126,129,128,129,128,0
9906,129,126,126,127,127,127,126,127,0
9911,127,126,128,128,128,129,127,128,0
9914,131,128,126,126,129,128,129,129,0
9918,130,128,126,127,128,128,128,128,0
9921,129,127,127,128,130,128,129,127,0
9925,122,128,127,127,127,128,128,127,0
9932,123,129,128,127,126,127,130,129,0
9938,130,128,126,127,128,128,126,127,0
9941,129,125,129,127,127,126,127,127,0
9945,125,125,128,128,127,127,128,129,0
9949,129,127,126,127,126,128,126,128,0
9952,131,129,130,126,129,127,126,127,0
9955,130,127,130,128,125,128,129,128,0
9958,124,128,128,127,127,128,128,127,0
9961,123,129,129,128,129,128,128,128,0
9964,130,129,126,127,129,128,128,128,0
9969,130,128,127,128,126,126,130,128,0
9972,128,128,127,129,127,128,128,126,0
9975,122,128,127,128,132,128,127,129,0
9983,131,129,129,128,128,128,128,128,0
9987,129,127,125,128,130,127,128,129,0
9991,123,123,126,128,129,128,129,129,0
9995,129,127,127,126,129,128,129,129,0
9998,129,128,126,127,126,127,127,128,0
10001,128,127,127,128,125,126,127,126,0
10005,122,127,129,129,126,127,127,126,0
10008,123,129,128,128,124,129,128,128,0
10019,130,129,126,127,128,128,130,129,0
10024,130,128,127,128,127,126,127,127,0
10027,131,127,128,126,127,127,126,127,0
10032,128,127,126,128,128,128,128,128,0
10035,128,129,129,128,127,127,126,127,0
10038,128,128,128,128,127,127,127,126,0
10045,123,127,128,128,131,128,128,128,0
10042,123,127,128,128,127,128,128,127,0
10050,129,128,128,127,128,128,129,129,0
10056,129,128,128,127,127,126,127,127,0
10060,127,126,127,128,127,127,128,128,0
10064,124,127,129,128,127,127,127,128,0
10067,129,128,128,127,126,126,126,127,0
10071,129,128,129,128,127,127,127,127,0
10074,127,127,127,127,129,126,127,125,0
10077,119,129,128,128,127,129,127,126,0
10081,130,129,129,126,130,126,126,129,0
10084,130,128,130,128,128,128,128,128,0
10088,130,124,126,128,129,129,130,128,0
10091,129,126,126,127,126,127,126,127,0
10093,128,129,129,128,127,126,125,128,0
10101,128,129,129,127,124,128,128,125,0
10105,123,128,128,129,126,127,127,126,0
10109,123,127,127,127,128,127,127,127,0
10114,131,129,130,128,128,128,127,127,0
10119,131,128,128,127,127,127,127,127,0
10123,129,126,129,128,125,127,127,127,0
10126,127,126,126,127,129,129,128,128,0
10129,128,127,127,128,129,127,128,128,0
10134,129,128,126,128,127,129,128,128,0
10139,128,125,128,128,127,127,126,128,0
10143,123,128,128,128,127,128,128,126,0
10146,123,129,128,128,129,128,128,128,0
10150,129,129,128,126,129,128,129,128,0
10153,129,126,126,128,128,128,129,128,0
10156,122,124,127,128,126,128,128,128,0
10159,130,127,126,128,129,128,128,129,0
10162,129,129,127,129,129,127,127,128,0
10176,128,127,128,129,127,128,127,125,0
10179,123,128,128,128,127,128,128,126,0
10182,123,128,129,127,128,128,127,127,0
10185,130,129,130,127,129,128,128,128,0
10188,130,128,127,128,129,127,128,127,0
10192,128,125,126,126,128,128,131,128,0
10195,129,127,126,127,127,127,126,128,0
10199,128,129,129,126,128,127,127,128,0
10202,128,126,127,128,126,125,127,126,0
10205,123,129,128,129,128,128,127,124,0
10209,123,127,127,128,128,127,127,128,0
10212,130,129,129,128,129,128,128,128,0
10215,131,127,126,127,128,128,128,128,0
10228,129,126,126,127,127,127,127,127,0
10232,130,128,130,128,126,127,126,129,0
10236,127,129,129,128,127,128,127,128,0
10239,128,127,127,129,126,127,126,127,0
10242,130,125,127,129,127,129,128,127,0
10245,122,129,128,128,125,126,127,128,0
10249,129,130,128,128,128,128,128,128,0
10252,129,128,130,129,127,127,125,128,0
10262,130,127,128,126,129,128,129,127,0
10265,130,125,126,127,129,128,128,129,0
10269,128,129,126,127,127,129,129,129,0
10273,131,127,128,128,129,127,127,127,0
10276,124,129,127,128,127,128,128,126,0
10280,122,128,128,128,127,128,126,128,0
10283,130,130,129,127,128,128,126,127,0
10286,129,128,128,128,128,126,127,127,0
10289,129,126,127,127,126,127,126,127,0
10293,130,127,127,127,128,128,126,127,0
10301,129,130,130,126,129,127,128,129,0
10304,129,127,127,128,128,128,128,129,0
10308,125,126,128,129,127,128,128,126,0
10311,123,128,127,127,127,127,126,128,0
10314,131,129,130,126,129,127,127,128,0
10318,130,129,129,128,129,128,128,127,0
10321,127,127,128,128,128,126,127,127,0
10325,126,126,127,128,129,128,128,128,0
10328,130,128,128,126,129,128,128,128,0
10336,128,128,128,126,130,126,127,126,0
10340,122,128,128,129,127,127,128,127,0
10344,123,127,128,128,125,129,128,128,0
10347,131,129,129,127,129,128,128,129,0
10355,130,128,128,128,128,128,127,127,0
10358,131,126,129,128,128,127,127,128,0
10362,126,126,126,128,125,128,125,128,0
10365,128,128,127,127,124,128,129,129,0
10413,130,127,127,127,127,126,127,127,0
10422,128,126,129,130,126,127,129,126,0
10428,123,128,127,128,127,127,126,127,0
10434,123,126,129,126,129,127,126,128,0
10442,130,129,127,128,128,128,127,127,0
10484,130,127,127,128,129,128,126,128,0
10499,127,126,129,128,128,128,129,128,0
10508,129,127,127,128,126,127,127,127,0
10515,128,129,129,128,123,127,128,129,0
10522,128,126,126,128,127,128,127,126,0
10549,123,128,128,128,127,127,127,126,0
10561,122,128,128,126,128,128,125,128,0
10568,129,129,129,127,128,127,127,127,0
10573,128,128,127,128,129,128,129,128,0
10577,128,125,126,128,126,128,126,127,0
10619,130,127,127,128,126,126,126,128,0
10629,128,129,129,128,127,127,126,127,0
10638,128,128,129,128,124,127,126,127,0
10646,127,127,128,126,124,128,128,128,0
10664,128,128,130,128,128,128,128,128,0
10670,128,130,128,128,128,128,129,128,0
10677,122,129,128,129,126,128,128,126,0
10683,124,127,128,128,128,128,126,125,0
10688,124,128,128,128,126,126,129,129,0
10692,132,129,127,126,129,128,128,129,0
10695,130,129,130,126,129,126,127,126,0
10698,131,127,129,127,129,130,128,128,0
10702,129,126,125,126,128,129,129,129,0
10705,129,129,127,127,128,128,129,129,0
10708,130,127,126,128,129,126,127,128,0
10711,126,126,127,127,129,126,127,128,0
10714,121,128,127,128,126,127,127,128,0
10718,128,129,126,127,129,128,128,129,0
10721,130,127,127,127,129,130,126,127,0
10724,130,126,128,128,127,128,127,127,0
10728,122,128,128,128,127,127,126,129,0
10731,131,127,126,125,131,129,128,127,0
10734,130,127,126,126,131,128,128,129,0
10737,130,125,126,126,128,129,126,127,0
10740,127,126,128,126,129,129,128,128,0
10750,130,129,127,127,126,127,127,128,0
10755,130,127,128,129,126,126,127,126,0
10759,120,128,127,128,127,129,127,124,0
10761,120,128,128,128,128,128,127,128,0
10765,129,129,129,128,129,128,128,128,0
10820,130,127,126,127,126,128,130,128,0
10831,131,126,128,128,125,126,127,126,0
10841,125,126,126,128,125,127,129,129,0
10848,129,130,128,129,128,126,126,128,0
10860,129,128,128,129,127,126,126,127,0
10871,130,125,127,128,126,128,128,128,0
10884,127,126,126,127,129,128,128,128,0
10895,129,130,126,127,127,127,127,128,0
10899,129,128,128,126,124,126,127,125,0
10904,123,129,128,129,127,128,128,127,0
10911,124,127,128,128,127,128,127,128,0
10917,126,129,128,126,129,129,128,128,0
10921,131,127,126,127,130,130,131,128,0
10926,129,128,128,128,127,127,127,127,0
10929,127,126,128,127,126,128,127,128,0
10934,128,128,128,127,127,127,126,128,0
10938,129,128,130,128,128,128,126,127,0
10944,126,128,129,128,127,127,127,126,0
10948,122,128,128,128,127,128,128,126,0
10951,126,127,130,128,128,128,127,127,0
10954,129,128,129,129,128,128,128,128,0
10958,129,127,126,127,125,127,128,128,0
10962,124,127,128,128,129,128,129,128,0
10966,128,128,126,128,127,128,129,129,0
10973,130,128,127,127,126,128,126,127,0
10977,129,126,126,128,129,128,128,128,0
10981,124,127,127,128,128,129,128,126,0
10984,123,128,127,128,129,127,126,127,0
10988,130,129,127,128,129,128,129,129,0
10991,130,127,127,127,127,127,126,125,0
10995,126,126,127,128,127,126,126,127,0
10999,128,128,129,128,129,127,127,128,0
11005,129,129,128,127,129,128,129,129,0
11009,125,127,130,127,128,128,129,128,0
11012,128,126,128,128,128,129,127,125,0
11015,122,130,128,128,127,127,127,128,0
11019,131,129,128,128,131,128,128,126,0
11022,129,128,127,126,129,126,128,127,0
11026,128,125,126,127,127,129,126,127,0
11030,129,126,127,126,129,129,130,129,0
11033,129,129,126,127,127,127,129,128,0
11037,131,126,126,128,127,128,129,127,0
11040,123,128,130,128,127,128,127,126,0
11043,123,129,128,129,126,126,127,128,0
11047,130,129,126,126,131,128,128,129,0
11050,130,127,126,127,128,128,126,127,0
11053,127,125,128,128,127,126,127,127,0
11056,129,126,128,128,127,128,126,127,0
11059,129,128,127,126,129,128,128,129,0
11063,130,126,126,128,125,127,127,128,0
11066,130,124,128,127,127,128,128,126,0
11069,122,128,128,128,126,127,126,129,0
11072,130,129,128,128,129,128,129,128,0
11076,131,128,126,125,131,128,129,128,0
11079,130,126,126,127,126,128,126,127,0
11085,129,127,131,128,126,126,126,128,0
11089,128,128,128,128,126,126,126,127,0
11092,128,128,129,128,127,126,127,125,0
11095,122,128,129,129,126,128,129,126,0
11098,123,127,127,129,127,126,131,129,0
11101,131,129,126,127,131,128,130,128,0
11105,130,128,128,128,127,127,126,127,0
11108,129,125,130,126,128,128,126,127,0
11111,123,126,127,127,126,127,128,129,0
11114,127,129,128,128,126,126,126,128,0
11118,129,129,128,126,129,128,128,127,0
11121,128,127,128,128,129,126,127,126,0
11124,122,129,127,128,127,127,128,127,0
11127,125,129,130,128,129,128,128,128,0
11131,130,128,126,126,128,128,130,128,0
11134,129,128,130,126,129,127,126,127,0
11138,124,127,128,128,127,128,127,127,0
11142,122,126,127,128,132,127,128,128,0
11144,130,129,130,128,129,128,129,128,0
11148,130,127,127,127,125,127,126,126,0
11151,126,126,127,128,129,127,128,128,0
11154,129,127,126,127,129,128,129,129,0
11159,129,128,128,127,126,128,129,128,0
11163,130,126,128,127,124,127,128,127,0
11166,129,126,129,128,126,127,126,127,0
11169,129,128,127,128,128,127,128,129,0
11172,128,128,127,128,129,126,127,127,0
11175,123,128,127,128,127,128,129,126,0
11178,123,128,129,128,127,128,128,126,0
11181,123,127,129,127,129,127,127,128,0
11187,131,129,128,127,128,128,126,128,0
11191,127,128,128,126,128,127,127,127,0
11194,129,126,127,128,131,125,130,128,0
11197,130,127,126,127,126,128,126,128,0
11199,129,129,129,128,127,127,126,127,0
11202,127,128,129,126,127,127,127,125,0
11205,122,128,127,129,127,128,127,126,0
11208,123,128,128,129,127,126,127,128,0
11210,131,129,127,127,127,128,130,128,0
11213,130,128,127,127,126,127,130,128,0
11216,130,125,126,126,127,128,128,128,0
11219,128,127,129,127,128,128,128,128,0
11222,129,128,126,127,128,128,130,129,0
11225,129,126,126,126,128,128,129,128,0
11230,128,127,130,129,128,129,127,126,0
11233,122,127,128,126,129,127,126,128,0
11236,129,129,131,126,128,127,127,128,0
11240,129,127,129,128,130,127,127,127,0
11244,129,125,127,127,128,127,128,129,0
11246,127,126,126,128,129,128,128,128,0
11249,128,128,129,128,127,127,126,127,0
11252,128,127,127,128,126,128,127,126,0
11263,122,129,128,128,127,129,129,126,0
11267,123,129,128,127,127,128,128,128,0
11270,129,129,128,127,131,127,126,127,0
11273,129,128,128,128,129,127,127,126,0
11276,130,127,128,127,129,126,127,127,0
11279,128,126,128,128,127,127,128,129,0
11282,129,128,126,127,127,127,128,129,0
11285,129,128,128,127,125,127,127,128,0
11290,130,126,127,129,128,128,127,128,0
11295,125,125,128,128,129,129,127,129,0
11300,128,129,127,129,127,126,125,128,0
11303,128,129,129,129,127,126,127,126,0
11306,123,128,129,128,127,128,127,126,0
11310,123,126,127,127,128,127,128,127,0
11313,130,129,127,126,128,128,130,129,0
11316,130,129,128,128,129,127,127,128,0
11319,128,126,126,127,131,128,130,128,0
11323,128,124,127,127,125,126,127,128,0
11326,128,129,129,126,129,127,128,128,0
11331,126,129,129,128,129,127,128,128,0
11334,126,127,130,129,127,128,128,126,0
11337,123,127,128,128,127,128,127,126,0
11340,123,128,129,127,128,127,127,127,0
11343,131,128,129,128,129,127,127,128,0
11346,128,126,128,127,127,126,126,128,0
11349,129,125,128,128,126,128,129,128,0
11352,130,127,126,127,126,128,128,128,0
11356,128,129,128,128,128,126,126,127,0
11359,127,127,128,126,126,128,128,127,0
11362,125,128,129,127,127,128,127,126,0
11364,123,129,128,127,128,127,126,128,0
11367,129,130,128,128,131,127,128,128,0
11371,127,127,126,128,127,127,127,128,0
11374,130,123,127,126,129,125,128,127,0
11378,129,128,128,127,128,128,126,127,0
11381,129,129,128,128,130,127,128,128,0
11385,127,128,131,130,130,127,128,125,0
11388,121,129,127,129,128,129,128,124,0
11393,122,130,127,127,131,128,130,129,0
11398,131,128,126,127,129,128,128,128,0
11403,129,127,126,127,127,128,129,128,0
11407,130,125,126,127,126,127,127,127,0
11410,128,128,129,127,127,128,128,128,0
11413,129,128,128,128,126,128,126,127,0
11417,128,128,130,128,126,127,125,127,0
11419,126,126,127,128,128,126,128,125,0
11422,123,129,128,129,126,127,127,127,0
11425,126,129,127,127,127,127,126,127,0
11428,129,128,128,128,129,127,127,128,0
11433,130,127,128,128,126,128,127,125,0
11437,123,128,128,128,125,128,128,129,0
11441,130,129,126,126,131,128,129,128,0
11445,130,128,126,127,126,127,128,128,0
11448,129,127,128,127,125,128,128,128,0
11451,128,127,127,127,126,128,127,128,0
11453,128,130,130,128,129,127,128,128,0
11456,128,127,127,127,128,127,128,125,0
11459,122,128,128,128,126,128,127,126,0
11462,122,128,127,129,128,128,126,128,0
11466,130,129,128,127,129,128,128,128,0
11468,131,128,128,128,128,127,126,127,0
11472,130,127,126,128,129,125,127,125,0
11474,128,126,126,127,127,128,126,127,0
11477,127,130,129,128,128,127,126,128,0
11481,129,128,126,127,127,128,128,127,0
11484,128,126,127,129,127,128,128,125,0
11487,122,128,128,128,126,128,128,128,0
11492,131,129,128,127,128,128,127,127,0
11499,128,129,130,126,129,127,128,128,0
11505,123,126,128,128,125,128,129,128,0
11509,129,125,125,128,126,127,127,128,0
11513,129,129,129,127,129,128,127,128,0
11515,130,128,127,126,129,128,129,127,0
11518,124,127,128,128,128,128,128,126,0
11521,122,128,128,129,126,128,128,127,0
11525,126,130,130,127,129,128,126,128,0
11529,129,129,128,127,128,126,127,127,0
11532,128,125,125,127,128,127,127,127,0
11535,128,127,128,128,131,126,128,128,0
11539,128,128,128,126,129,128,127,129,0
11543,130,127,127,126,129,127,127,128,0
11545,126,125,126,128,128,126,128,128,0
11548,124,127,128,129,126,127,126,128,0
11551,128,129,129,128,127,128,128,127,0
11554,130,127,127,128,129,128,128,127,0
11559,124,128,128,128,128,129,128,125,0
11566,121,129,128,129,128,126,126,128,0
11571,131,128,127,127,130,127,127,128,0
11574,130,129,129,127,129,129,128,128,0
11578,129,127,128,128,128,126,126,127,0
11581,128,126,130,128,129,127,127,127,0
11585,128,128,130,126,129,128,127,128,0
11588,128,129,127,128,126,127,126,127,0
11591,128,128,129,127,125,127,128,127,0
11595,123,128,128,127,128,127,127,127,0
11600,123,127,128,127,127,128,127,129,0
11604,130,129,127,128,127,128,127,128,0
11609,128,128,128,128,126,127,126,127,0
11613,128,125,128,128,126,126,126,126,0
11620,131,128,128,127,127,127,127,128,0
11626,128,129,128,127,129,128,128,128,0
11630,127,128,129,127,125,128,127,125,0
11633,122,128,128,128,127,128,127,127,0
11636,122,128,128,129,129,128,128,128,0
11639,131,129,127,126,129,128,129,128,0
11643,130,126,126,127,128,130,127,128,0
11646,129,126,128,129,127,128,128,127,0
11649,122,127,128,128,128,128,128,128,0
11652,130,129,126,126,127,128,129,128,0
11655,129,128,128,128,126,126,127,128,0
11658,130,126,126,129,124,128,126,127,0
11661,128,128,128,128,128,127,128,129,0
11664,128,128,126,128,128,129,128,129,0
11667,126,128,126,128,126,128,127,128,0
11671,129,126,126,128,127,128,127,127,0
11673,123,128,128,128,127,127,127,127,0
11676,124,127,126,126,131,128,129,128,0
11680,130,128,128,126,128,127,127,128,0
11682,129,125,130,128,129,127,128,127,0
11685,129,126,126,126,125,127,127,127,0
11688,127,129,129,126,129,128,128,129,0
11691,128,127,128,126,130,126,127,126,0
11694,124,128,128,128,126,128,128,127,0
11697,124,127,129,128,127,127,126,128,0
11702,130,129,127,125,127,128,130,129,0
11705,130,128,127,127,128,128,127,127,0
11707,129,127,127,128,130,127,127,127,0
11711,128,124,129,128,129,128,127,128,0
11714,130,128,126,126,128,128,130,129,0
11720,130,126,127,126,129,128,129,127,0
11724,122,128,127,128,127,128,127,126,0
11727,123,127,128,129,127,127,126,128,0
11731,131,129,127,126,128,129,127,128,0
11734,130,128,126,127,128,128,128,128,0
11737,128,126,126,127,128,126,126,126,0
11742,127,127,127,126,128,127,128,128,0
11745,130,128,126,127,128,128,129,129,0
11748,130,128,127,128,127,126,127,127,0
11751,128,128,127,129,126,127,127,125,0
11754,123,127,127,129,127,127,127,127,0
11758,128,128,128,128,131,128,129,129,0
11761,131,128,126,128,131,128,130,128,0
11764,130,125,126,127,127,127,128,128,0
11767,127,126,128,128,127,126,128,128,0
11770,128,128,128,128,126,126,126,128,0
11774,129,128,128,128,125,128,127,128,0
11777,128,128,128,128,126,128,129,127,0
11781,128,127,128,128,129,126,128,127,0
11784,123,130,129,128,127,127,127,126,0
11787,123,130,127,128,127,128,127,127,0
11791,125,126,127,127,127,127,127,127,0
11794,129,126,129,127,126,126,126,127,0
11798,128,129,130,127,130,127,127,128,0
11801,130,129,130,128,127,128,127,128,0
11804,130,127,130,128,125,128,128,127,0
11807,131,127,129,128,126,128,127,127,0
11811,123,126,125,126,128,129,128,129,0
11815,129,128,126,128,128,127,126,128,0
11818,129,127,127,127,125,125,128,127,0
11821,130,127,129,127,129,127,127,128,0
11829,126,127,125,127,129,129,128,129,0
11833,127,128,127,127,127,127,128,128,0
11836,124,128,128,129,126,127,127,126,0
11839,124,128,128,128,128,128,128,126,0
11841,123,128,128,128,123,131,128,128,0
11844,131,129,127,127,128,128,126,128,0
11847,129,126,129,127,129,128,128,128,0
11850,129,125,125,126,127,128,128,127,0
11853,127,128,130,128,127,127,126,128,0
11856,128,129,129,128,128,127,126,128,0
11860,129,127,129,129,126,127,126,127,0
11869,130,127,128,130,126,128,128,125,0
11874,122,129,127,128,125,126,127,128,0
11877,130,129,127,127,126,127,128,130,0
11881,129,127,127,128,127,126,127,127,0
11884,127,126,126,127,128,126,126,127,0
11888,128,127,127,128,128,127,125,128,0
11891,128,129,127,127,129,128,129,129,0
11895,129,128,126,127,126,129,128,126,0
11898,123,128,128,129,127,127,127,126,0
11901,123,129,128,129,127,126,127,129,0
11904,131,128,126,125,128,128,128,128,0
11908,131,128,128,127,129,127,127,127,0
11911,128,126,126,128,131,128,130,128,0
11914,127,126,126,127,127,127,126,127,0
11916,129,128,128,128,127,127,126,127,0
11920,127,128,128,127,126,128,129,127,0
11922,122,127,129,128,126,127,129,126,0
11926,123,128,127,128,127,127,126,127,0
11928,131,129,128,127,128,127,130,129,0
11931,130,128,127,127,127,128,127,129,0
11935,128,125,127,128,127,127,127,127,0
11940,128,127,130,127,129,127,128,128,0
11943,126,128,130,127,129,128,127,129,0
11946,129,128,128,127,128,128,129,127,0
11949,127,126,128,128,129,128,128,126,0
11952,121,128,128,128,127,128,127,127,0
11954,130,128,126,127,128,128,127,129,0
11958,130,128,129,128,129,128,129,128,0
11961,128,126,125,126,128,128,130,127,0
11964,130,126,128,129,126,127,128,127,0
11967,128,128,125,127,128,128,128,128,0
11971,130,128,126,127,125,128,129,128,0
11974,130,126,128,129,127,128,127,126,0
11977,123,127,127,129,126,127,127,129,0
11980,130,128,127,127,127,127,127,129,0
11983,129,129,128,127,126,128,126,127,0
11988,128,127,130,129,126,127,127,127,0
11991,127,125,130,128,129,128,128,128,0
11994,129,128,126,127,128,127,127,128,0
11997,130,129,128,128,126,127,126,128,0
12003,128,127,127,128,128,127,128,128,0
12007,126,126,128,127,129,127,126,128,0
12010,124,126,126,128,128,129,128,129,0
12014,129,128,128,128,126,127,127,128,0
12017,127,126,128,128,127,128,127,125,0
12020,122,129,128,128,128,129,127,126,0
12022,123,129,127,128,127,128,126,128,0
12025,129,130,129,127,129,127,126,127,0
12028,129,128,128,126,130,126,127,127,0
12031,128,126,128,126,128,127,127,127,0
12034,129,127,128,128,128,128,126,129,0
12039,129,128,130,126,129,127,128,128,0
12043,130,126,128,126,129,128,127,127,0
12046,129,128,128,127,127,128,127,125,0
12048,122,129,128,128,126,128,127,128,0
12052,129,129,128,127,128,128,126,127,0
12055,130,129,130,128,128,126,126,126,0
12059,128,126,128,127,125,126,126,127,0
12062,128,128,129,128,128,128,126,127,0
12065,128,129,129,128,128,128,128,128,0
12068,127,127,129,129,127,128,127,126,0
12072,123,128,128,128,127,128,128,126,0
12075,124,128,127,128,126,128,128,128,0
12077,130,129,126,127,129,128,127,128,0
12081,130,128,126,128,131,127,128,128,0
12084,129,126,126,127,127,128,129,128,0
12088,130,127,131,128,129,128,129,128,0
12091,129,128,126,127,126,127,126,128,0
12094,128,128,128,129,125,128,127,127,0
12097,122,128,128,128,126,127,127,126,0
12101,123,128,128,128,125,130,129,128,0
12109,130,129,129,127,128,127,127,128,0
12112,131,129,127,128,130,128,129,128,0
12115,130,126,126,126,127,128,131,129,0
12118,129,125,126,127,127,127,128,129,0
12122,130,129,128,128,127,126,125,128,0
12127,129,127,127,128,126,127,130,126,0
12131,122,128,129,129,126,127,127,126,0
12134,123,127,127,127,126,126,129,129,0
12137,129,128,126,128,128,128,126,127,0
12141,129,128,128,129,129,128,129,129,0
12145,130,125,126,127,127,128,128,127,0
12148,127,126,127,127,129,128,129,129,0
12153,129,129,126,127,129,128,128,129,0
12159,130,126,127,126,129,128,129,127,0
12165,123,129,129,127,127,127,128,127,0
12167,123,127,129,128,127,128,127,128,0
12170,130,128,127,128,131,128,127,128,0
12173,131,129,126,125,128,129,129,128,0
12178,130,126,127,128,127,126,127,128,0
12181,129,126,128,128,128,125,126,128,0
12185,128,129,128,125,129,127,128,128,0
12188,129,128,127,126,128,127,128,128,0
12191,128,127,129,128,125,127,129,128,0
12195,123,126,126,128,126,128,127,126,0
12198,123,128,128,128,125,128,127,128,0
12202,131,129,127,127,127,128,127,127,0
12205,130,128,129,126,126,127,127,127,0
12209,128,126,126,127,129,128,127,128,0
12211,127,127,126,128,128,128,129,129,0
12214,129,129,127,128,127,127,126,128,0
12217,129,124,128,129,126,128,128,126,0
12221,123,128,129,128,128,128,127,126,0
12224,124,129,128,128,129,128,127,128,0
12227,130,130,128,127,131,128,128,129,0
12230,130,127,126,127,129,128,129,129,0
12233,131,126,126,126,127,126,127,128,0
12236,127,128,128,128,130,127,127,129,0
12240,130,129,128,129,129,129,128,128,0
12243,130,126,127,128,128,128,127,128,0
12246,125,127,128,128,127,127,127,126,0
12250,122,127,128,128,126,125,130,129,0
12253,130,129,126,127,127,128,127,128,0
12257,129,128,126,128,129,127,128,128,0
12262,129,125,126,127,128,126,129,128,0
12267,128,126,126,127,129,129,128,129,0
12270,129,128,127,127,126,127,127,129,0
12274,128,129,128,128,125,127,126,127,0
12277,128,127,127,127,127,128,128,127,0
12280,128,125,126,128,127,127,128,128,0
12283,128,129,129,128,128,128,129,128,0
12285,128,127,131,129,126,127,128,125,0
12289,123,128,127,128,127,127,128,126,0
12292,123,128,128,128,127,127,126,127,0
12295,130,129,130,127,128,127,126,128,0
12298,129,128,126,128,123,128,128,126,0
12301,129,128,129,126,126,126,128,127,0
12303,128,127,128,127,126,128,127,128,0
12306,128,129,128,127,128,128,127,127,0
12309,128,128,128,128,128,126,126,128,0
12313,126,128,127,128,127,130,127,126,0
12316,122,128,128,128,126,127,127,128,0
12319,131,129,126,127,128,128,128,128,0
12323,129,129,128,128,129,128,128,129,0
12327,126,126,126,126,128,126,126,128,0
12330,126,126,127,128,130,128,127,128,0
12333,129,129,127,126,129,128,128,129,0
12336,131,127,127,128,126,128,129,128,0
12339,129,127,128,128,127,128,127,123,0
12342,120,129,127,128,128,127,127,128,0
12345,131,127,126,125,131,128,128,128,0
12348,130,129,128,128,128,128,128,128,0
12351,132,126,127,127,126,127,127,126,0
12353,128,125,128,126,128,126,127,128,0
12356,129,129,131,126,128,127,127,129,0
12361,131,127,127,127,131,127,128,127,0
12368,127,127,127,128,125,127,129,127,0
12371,122,129,128,128,128,129,127,127,0
12374,125,129,130,128,128,128,126,128,0
12377,130,130,130,127,127,127,126,128,0
12380,130,128,129,126,129,127,127,127,0
12384,128,127,126,127,130,126,129,129,0
12389,129,127,125,126,129,128,128,128,0
12392,129,129,129,126,128,126,127,128,0
12396,129,125,127,128,127,128,127,125,0
12400,123,128,127,128,127,127,126,127,0
12403,127,128,129,126,129,128,127,128,0
12405,130,129,126,127,128,128,128,129,0
12408,128,128,128,128,126,127,128,128,0
12412,128,126,128,128,126,127,129,128,0
12416,127,127,129,129,129,128,127,128,0
12419,130,129,126,127,131,125,126,128,0
12422,129,129,129,129,127,128,127,125,0
12425,124,128,128,128,128,127,128,125,0
12428,123,129,127,127,128,129,128,129,0
12431,130,128,126,127,127,128,130,129,0
12435,130,127,126,128,127,126,126,127,0
12438,129,127,126,128,130,126,128,127,0
12440,128,128,129,128,127,128,126,127,0
12444,128,130,128,126,129,127,128,129,0
12447,129,126,126,128,126,128,129,126,0
12451,124,128,128,129,127,127,129,126,0
12454,123,128,129,129,126,128,129,129,0
12456,130,129,128,128,128,128,128,128,0
12461,129,128,129,128,129,128,130,128,0
12473,130,125,126,126,128,127,129,128,0
12479,128,127,127,127,128,128,127,128,0
12482,128,129,130,128,127,127,125,127,0
12485,127,128,130,128,126,127,127,127,0
12489,128,127,129,129,127,128,128,126,0
12491,122,129,129,128,127,127,126,128,0
12495,129,129,128,127,128,128,126,128,0
12499,131,127,126,128,128,127,127,127,0
12502,130,127,128,127,125,128,129,126,0
12505,122,127,128,128,127,127,127,128,0
12509,129,129,127,128,128,128,129,128,0
12512,131,128,126,128,129,128,130,128,0
12515,129,126,127,127,125,128,128,128,0
12518,128,127,127,128,127,127,127,128,0
12522,128,129,129,128,128,127,126,128,0
12525,128,128,129,128,126,126,125,127,0
12528,128,127,128,128,127,128,127,126,0
12531,122,127,127,129,127,128,127,126,0
12534,123,129,129,128,125,128,128,129,0
12537,130,127,125,125,129,128,131,128,0
12541,129,126,126,126,129,131,127,127,0
12543,128,127,127,128,126,128,127,128,0
12547,129,129,127,126,129,128,127,129,0
12550,130,127,127,127,129,129,128,129,0
12553,128,125,127,129,129,126,128,127,0
12557,122,128,128,128,127,128,127,126,0
12564,122,129,127,126,130,128,127,128,0
12567,130,128,127,128,130,127,128,127,0
12571,129,127,128,128,126,127,126,127,0
12574,129,127,129,129,126,128,127,126,0
12579,123,129,128,128,129,129,127,129,0
12584,129,129,127,127,128,127,127,128,0
12590,129,127,127,127,126,127,129,128,0
12593,129,125,127,129,127,127,127,126,0
12596,123,130,128,127,129,129,130,129,0
12599,130,129,127,127,129,128,127,127,0
12602,130,128,129,126,129,126,127,127,0
12606,127,125,128,128,128,126,127,127,0
12609,128,128,129,128,129,128,128,128,0
12612,129,128,128,129,129,128,127,129,0
