Start Recording
29,127,128,126,123,128,128,126,127,0
35,127,127,126,125,127,130,128,130,0
40,128,127,127,128,128,127,127,131,0
44,127,130,128,129,127,128,126,124,0
48,127,127,128,128,128,127,127,127,0
51,127,127,128,125,127,128,127,128,0
55,128,127,127,123,127,128,129,125,0
58,128,127,126,125,127,128,127,128,0
62,127,128,126,126,129,127,126,125,0
65,127,127,128,126,128,129,128,128,0
68,129,128,127,129,125,128,128,129,0
71,126,128,127,135,128,128,128,124,0
76,126,126,129,135,122,128,129,123,0
79,126,127,128,134,125,129,127,129,0
82,129,127,127,121,128,130,127,131,0
85,128,129,127,123,130,130,127,127,0
90,126,126,128,126,129,127,126,127,0
92,128,125,128,122,127,128,127,130,0
95,127,129,126,125,128,128,128,129,0
98,128,128,129,129,129,126,128,124,0
101,127,127,129,124,128,127,128,125,0
105,128,127,126,123,127,129,128,127,0
109,129,127,126,126,127,128,128,130,0
112,128,127,128,125,130,127,126,126,0
116,127,128,128,121,129,127,125,124,0
118,127,129,129,134,126,126,128,127,0
121,128,126,126,126,127,129,127,128,0
125,129,127,126,126,126,128,128,129,0
130,127,127,129,136,124,127,129,122,0
146,126,127,130,135,124,127,129,125,0
150,129,127,128,121,128,128,126,131,0
153,129,127,128,129,128,128,125,132,0
156,128,127,126,121,130,127,126,127,0
159,127,127,128,125,128,129,129,123,0
162,128,130,128,123,129,127,127,127,0
165,128,128,126,129,127,128,128,124,0
168,127,127,126,126,128,127,127,125,0
170,126,127,129,131,130,127,129,129,0
173,128,129,127,129,128,125,128,127,0
176,128,128,127,129,128,128,128,130,0
179,128,129,130,137,122,127,130,125,0
181,126,127,129,134,125,127,129,124,0
186,127,129,126,122,129,130,128,133,0
189,129,127,128,121,128,128,127,130,0
192,128,127,127,121,128,127,127,131,0
195,125,127,128,124,128,128,127,125,0
198,127,127,128,124,128,128,128,132,0
201,129,129,128,128,129,127,126,125,0
231,128,127,129,128,128,127,126,123,0
236,127,127,126,125,128,126,126,125,0
241,128,127,128,129,126,128,127,129,0
245,129,127,128,131,128,127,127,129,0
249,129,128,127,124,129,126,127,128,0
252,125,127,129,136,128,125,127,128,0
256,128,128,127,120,128,127,128,129,0
259,129,127,128,124,127,125,129,131,0
262,128,128,128,123,129,126,128,123,0
265,127,129,129,139,122,127,131,123,0
269,126,127,128,134,127,128,128,132,0
274,129,126,126,124,129,127,126,130,0
280,126,129,126,125,126,128,127,128,0
283,127,126,127,121,127,128,128,123,0
286,127,126,128,125,126,129,127,126,0
289,128,127,128,127,127,127,128,131,0
292,128,128,126,124,126,128,128,123,0
296,127,127,129,130,128,126,126,122,0
300,126,127,128,125,127,128,129,127,0
303,128,127,126,129,126,128,128,125,0
306,128,128,126,126,127,126,130,124,0
308,127,127,129,133,125,128,129,124,0
313,127,127,128,134,128,128,128,128,0
315,128,127,127,122,128,128,128,132,0
319,129,127,125,123,129,127,127,130,0
321,126,129,127,121,129,128,127,126,0
325,127,127,126,128,128,128,126,128,0
329,128,127,126,125,129,128,127,129,0
332,128,127,128,128,128,128,127,125,0
335,127,128,126,127,129,127,127,126,0
338,127,127,129,135,127,128,127,128,0
341,129,127,128,125,128,127,128,128,0
343,129,129,126,132,129,127,126,126,0
346,127,126,128,138,123,127,131,124,0
349,126,127,128,136,127,130,127,131,0
363,130,128,125,122,128,129,127,130,0
367,128,127,127,126,128,128,127,128,0
371,127,127,126,126,128,127,128,128,0
375,127,129,128,126,127,128,127,129,0
378,129,128,126,121,128,128,127,129,0
382,128,127,128,127,129,127,126,126,0
386,128,127,128,125,128,128,127,126,0
391,124,128,129,140,124,130,130,121,0
397,128,128,126,125,129,127,127,127,0
400,128,127,128,126,128,128,126,126,0
403,127,126,126,125,128,127,127,130,0
406,127,127,129,134,128,127,128,131,0
409,129,128,128,121,129,128,127,130,0
411,129,127,128,129,127,129,128,128,0
415,127,128,126,136,126,126,127,127,0
418,126,126,126,130,128,127,128,128,0
421,128,128,126,129,128,126,127,127,0
424,129,127,129,133,128,128,127,129,0
427,125,128,129,136,122,128,130,125,0
430,126,126,129,136,126,127,127,133,0
433,127,129,125,123,129,129,128,131,0
437,129,126,128,125,128,128,126,130,0
440,128,127,126,121,130,128,127,124,0
444,126,126,128,125,128,128,127,128,0
446,128,127,126,124,129,127,127,125,0
449,129,128,128,129,129,128,127,130,0
452,127,128,126,130,127,128,128,126,0
455,126,128,128,129,129,125,127,126,0
458,127,127,128,134,128,127,128,126,0
472,128,127,129,129,128,127,128,128,0
478,128,128,128,134,127,127,128,128,0
482,127,127,127,130,128,127,127,127,0
486,127,129,128,126,126,129,129,129,0
489,129,129,129,129,128,127,128,124,0
492,126,130,128,124,128,127,128,124,0
495,127,127,129,134,124,127,129,124,0
499,127,127,128,119,128,128,128,133,0
510,129,127,128,124,128,127,127,132,0
515,129,129,127,124,128,128,127,128,0
518,127,127,128,126,129,127,127,127,0
521,127,129,127,126,126,127,127,128,0
525,129,129,126,124,129,127,127,129,0
527,128,129,127,125,128,126,126,123,0
530,125,127,129,136,126,129,129,123,0
535,127,127,128,125,128,128,128,129,0
547,129,127,126,125,128,129,128,130,0
551,128,129,128,129,128,127,126,126,0
554,127,127,128,124,128,130,127,128,0
557,127,127,129,134,127,129,128,128,0
560,129,128,127,126,128,127,127,132,0
563,129,128,126,124,128,126,126,130,0
566,126,127,129,135,128,128,130,123,0
569,127,126,129,136,124,127,128,130,0
581,129,127,126,122,129,128,127,132,0
586,127,130,127,121,128,127,126,130,0
591,128,129,127,124,129,128,126,123,0
596,127,127,125,122,129,128,127,128,0
600,129,129,128,127,128,129,128,127,0
603,128,128,129,133,127,129,128,123,0
606,127,127,126,122,129,128,126,128,0
609,127,127,128,126,127,128,127,129,0
617,128,129,127,123,127,128,128,129,0
620,128,128,128,132,127,128,128,125,0
624,127,127,129,135,127,127,130,125,0
630,126,127,129,136,123,127,130,124,0
633,128,127,126,124,128,127,128,132,0
639,128,127,125,123,129,126,127,132,0
643,126,127,128,127,128,128,126,126,0
646,125,127,128,133,129,126,127,127,0
650,128,130,126,123,128,127,127,129,0
654,129,127,128,127,127,128,128,129,0
657,127,127,129,127,127,127,128,126,0
660,127,127,129,134,128,127,129,127,0
663,128,128,126,123,128,127,127,131,0
666,129,130,127,132,128,127,127,129,0
669,128,129,129,135,129,127,127,127,0
672,127,127,128,129,128,127,127,125,0
675,128,127,127,125,126,127,128,131,0
678,128,128,127,123,128,127,126,126,0
684,129,128,126,125,126,127,126,129,0
687,127,127,126,121,128,127,126,124,0
689,127,128,128,124,126,127,127,129,0
692,129,129,129,125,126,127,129,125,0
695,126,127,129,139,125,126,130,124,0
698,127,127,128,134,123,127,128,124,0
708,127,128,128,129,130,127,128,131,0
712,129,130,126,123,129,128,127,130,0
715,126,127,127,124,128,128,126,127,0
718,127,126,126,123,130,130,128,128,0
721,127,127,126,124,128,127,126,128,0
725,127,130,128,123,128,128,127,130,0
727,129,127,128,128,128,127,127,127,0
730,127,127,128,126,127,126,126,121,0
734,128,127,126,127,127,128,129,131,0
737,129,128,126,125,129,127,127,128,0
747,128,127,127,125,128,127,129,124,0
753,127,128,130,139,125,126,129,122,0
758,127,127,127,122,127,128,128,132,0
763,129,128,127,124,127,128,127,131,0
766,128,126,126,122,128,127,126,124,0
769,125,129,128,125,129,128,127,127,0
772,128,127,126,126,128,128,128,129,0
776,129,128,126,128,128,126,127,128,0
779,129,127,128,133,128,127,128,129,0
783,128,128,129,134,129,126,127,128,0
787,127,127,126,127,126,128,128,127,0
790,129,127,128,128,126,129,128,130,0
793,128,128,127,127,128,128,126,129,0
795,127,128,129,138,123,127,130,123,0
798,126,127,129,134,124,127,127,130,0
801,130,127,128,121,128,128,126,129,0
805,129,127,128,125,127,130,128,131,0
808,126,127,126,125,129,127,127,125,0
810,127,126,128,123,127,127,129,125,0
815,128,128,128,127,126,127,128,129,0
818,129,127,128,122,129,127,126,123,0
821,125,127,129,134,128,127,126,128,0
835,127,126,126,124,128,127,126,127,0
839,129,131,127,123,128,128,127,130,0
843,128,130,127,124,127,126,126,125,0
846,126,130,129,134,129,127,126,124,0
850,126,126,126,129,128,126,127,128,0
853,128,129,126,128,128,127,128,126,0
857,129,129,126,128,128,128,128,128,0
860,127,127,126,131,123,128,129,123,0
870,127,127,130,138,123,130,130,124,0
878,128,126,128,122,128,128,127,129,0
883,128,128,128,124,129,128,126,128,0
886,128,128,128,129,130,127,126,126,0
889,127,127,128,124,127,128,127,124,0
893,128,127,128,131,128,126,127,129,0
896,129,128,128,123,129,128,126,127,0
899,128,128,127,138,125,129,129,122,0
905,126,126,129,134,124,126,130,123,0
909,128,127,127,120,128,130,128,132,0
912,129,127,126,120,129,127,127,131,0
915,128,127,127,121,129,128,127,130,0
920,127,127,126,124,130,127,127,129,0
923,128,129,128,127,127,129,128,127,0
928,128,127,126,123,127,128,129,128,0
930,128,128,128,128,128,127,128,127,0
933,126,126,126,122,128,127,128,127,0
936,127,127,128,126,129,127,127,128,0
939,129,127,126,130,126,128,127,124,0
942,128,127,127,124,128,127,127,122,0
946,125,127,129,133,127,127,127,128,0
956,128,127,126,124,126,129,129,129,0
960,129,127,128,126,126,128,128,126,0
963,127,127,128,130,128,128,127,124,0
966,127,127,127,122,129,128,127,125,0
969,127,128,126,124,127,127,129,129,0
973,129,128,126,125,127,127,127,126,0
976,128,128,130,134,122,127,131,127,0
979,126,127,129,136,124,126,130,123,0
991,127,127,126,118,128,128,127,130,0
996,128,127,127,127,130,131,128,129,0
1002,128,127,125,122,128,130,127,132,0
1008,127,127,127,123,129,129,126,126,0
1011,127,128,126,126,128,127,126,126,0
1015,127,129,128,125,127,128,128,129,0
1018,129,128,128,132,128,127,128,130,0
1021,127,128,128,131,129,126,128,127,0
1026,127,129,126,126,127,127,128,128,0
1031,129,131,129,127,128,125,127,126,0
1034,129,127,128,135,129,127,127,129,0
1037,128,127,127,126,127,126,126,123,0
1041,127,127,128,127,128,128,127,125,0
1044,129,127,126,127,128,128,128,127,0
1048,129,129,128,131,128,127,129,124,0
1050,127,127,129,134,125,127,129,123,0
1054,127,128,128,135,124,127,127,131,0
1058,129,130,125,120,129,128,127,133,0
1061,128,127,126,121,129,128,127,132,0
1070,126,129,128,126,129,127,126,128,0
1074,127,126,126,126,128,127,128,131,0
1078,128,127,126,125,127,128,128,130,0
1082,128,127,128,128,128,126,128,129,0
1085,127,128,127,128,128,127,128,128,0
1088,126,127,128,131,129,126,128,130,0
1091,128,128,127,128,128,129,128,129,0
1094,128,128,128,126,127,127,126,127,0
1096,127,127,128,130,128,129,129,121,0
1099,126,127,130,140,123,129,129,123,0
1102,127,127,125,120,127,128,127,132,0
1106,127,130,128,124,128,127,127,129,0
1109,127,126,126,126,129,127,127,129,0
1124,127,127,126,123,127,127,129,126,0
1128,128,128,128,125,128,125,128,131,0
1131,128,128,128,126,126,127,128,131,0
1135,128,128,129,134,126,127,126,124,0
1138,126,127,129,138,125,127,128,125,0
1142,127,127,125,123,128,127,128,134,0
1146,128,127,126,119,128,128,127,130,0
1148,127,126,126,130,128,128,126,124,0
1151,126,127,129,139,124,130,130,126,0
1158,127,127,127,122,128,127,128,131,0
1161,129,128,126,122,129,127,127,126,0
1167,128,127,129,125,127,128,127,127,0
1170,127,127,126,126,126,126,128,129,0
1174,128,128,128,129,127,127,127,129,0
1177,128,128,128,128,128,128,126,126,0
1181,128,127,128,127,126,127,128,124,0
1184,127,127,129,136,125,130,129,123,0
1187,127,129,127,121,129,128,127,130,0
1190,129,129,126,122,129,128,128,132,0
1194,128,126,126,124,129,128,127,125,0
1197,126,127,126,129,128,130,128,125,0
1206,127,129,128,129,126,127,127,126,0
1209,129,129,129,128,128,128,127,129,0
1212,127,128,129,128,128,129,126,125,0
1215,127,127,126,123,128,127,128,121,0
1218,125,127,128,125,128,126,127,126,0
1223,129,129,126,127,128,128,126,130,0
1226,129,127,128,125,128,126,127,128,0
1230,127,128,127,136,126,129,130,122,0
1233,127,127,128,138,124,129,128,129,0
1243,129,128,128,124,128,128,127,131,0
1247,128,127,128,126,128,128,127,130,0
1250,126,127,128,138,124,126,129,122,0
1253,127,127,128,135,128,128,127,131,0
1256,129,128,125,122,128,128,126,130,0
1259,129,129,128,120,129,126,127,131,0
1262,128,129,128,131,130,127,126,123,0
1265,125,126,128,128,128,127,127,127,0
1269,128,127,128,127,126,128,129,127,0
1272,129,128,128,128,128,126,127,127,0
1280,126,127,127,129,129,126,128,122,0
1284,126,127,129,139,124,128,127,129,0
1287,129,127,127,122,129,127,127,128,0
1290,128,128,126,123,130,127,126,128,0
1294,127,128,128,129,130,126,126,126,0
1297,125,127,128,128,127,128,128,127,0
1306,129,128,126,127,127,127,128,126,0
1311,128,129,129,128,127,127,127,129,0
1315,128,129,129,133,127,126,126,124,0
1318,125,129,128,126,127,130,128,127,0
1321,129,129,128,127,127,128,128,128,0
1325,129,127,126,126,128,126,129,125,0
1328,127,126,129,135,123,125,129,123,0
1342,126,126,128,121,129,126,128,132,0
1347,129,129,128,121,128,127,127,133,0
1351,127,129,128,124,128,128,126,130,0
1358,128,127,126,124,127,127,128,127,0
1362,127,129,128,124,128,127,126,128,0
1365,128,127,127,127,128,128,128,129,0
1370,129,128,126,125,128,127,126,129,0
1377,128,129,128,124,128,128,125,129,0
1381,127,127,128,126,129,127,128,129,0
1384,128,130,127,123,128,126,127,127,0
1387,129,127,128,127,127,128,128,123,0
1391,126,130,129,136,124,126,129,123,0
1394,126,127,128,137,124,126,128,125,0
1399,128,127,125,122,128,127,128,134,0
1402,129,128,126,122,128,127,127,131,0
1404,128,127,128,128,128,127,126,126,0
1407,127,127,128,132,128,127,127,129,0
1410,128,128,128,124,129,127,127,129,0
1413,129,130,127,129,127,128,126,129,0
1416,128,130,129,132,127,126,128,124,0
1419,126,129,127,120,128,126,126,126,0
1422,128,126,127,127,128,126,129,128,0
1429,129,128,128,133,127,128,128,132,0
1433,128,130,127,137,123,127,129,126,0
1438,127,128,129,136,125,127,128,125,0
1441,127,129,128,121,129,127,127,127,0
1445,129,128,128,122,129,127,126,130,0
1448,128,127,128,123,130,127,127,131,0
1452,125,130,129,128,128,128,127,128,0
1455,128,127,126,127,129,126,127,126,0
1464,129,130,128,127,127,127,126,127,0
1468,128,130,129,137,126,127,127,124,0
1471,127,127,127,128,129,128,127,122,0
1475,127,129,128,133,129,127,129,127,0
1480,129,128,128,127,126,128,129,127,0
1484,128,128,129,131,128,128,126,123,0
1488,125,126,129,136,126,127,128,122,0
1493,128,126,129,137,127,128,126,130,0
1499,129,128,126,122,129,128,127,132,0
1504,127,128,127,124,128,126,126,126,0
1507,125,128,128,128,129,127,126,125,0
1510,126,126,126,127,127,128,128,129,0
1514,127,128,126,127,129,127,127,128,0
1517,129,127,126,125,128,127,127,131,0
1520,128,127,129,137,125,125,130,123,0
1527,127,124,129,135,124,129,129,126,0
1532,129,126,126,120,128,128,127,131,0
1535,126,128,128,128,129,129,126,128,0
1538,127,125,128,122,129,127,126,127,0
1542,127,126,126,131,128,128,128,128,0
1546,129,128,126,124,127,128,128,131,0
1549,128,126,128,128,126,128,128,123,0
1552,127,127,128,123,129,128,126,127,0
1556,126,126,129,137,124,129,130,124,0
1559,128,128,128,123,129,129,127,130,0
1562,129,128,127,124,128,129,128,123,0
1566,127,126,126,124,130,127,127,127,0
1570,127,126,128,127,128,128,128,128,0
1573,129,127,129,126,127,129,129,127,0
1578,128,126,126,127,127,128,129,124,0
1581,127,127,129,129,126,127,127,127,0
1586,127,126,129,123,128,130,128,128,0
1589,129,128,128,126,126,130,129,123,0
1592,129,127,128,129,126,128,128,129,0
1596,127,126,129,139,125,128,129,122,0
1599,127,126,129,136,124,128,130,124,0
1602,128,126,125,120,128,129,128,133,0
1613,129,124,127,120,128,128,128,131,0
1621,128,127,128,128,127,129,128,127,0
1625,127,127,128,118,128,131,128,130,0
1629,128,126,126,124,128,128,128,129,0
1632,129,127,128,125,127,128,126,129,0
1635,128,127,127,124,129,127,128,122,0
1638,126,127,129,137,126,127,130,123,0
1641,128,128,126,123,129,128,127,126,0
1647,127,127,128,126,129,126,128,128,0
1651,127,127,127,126,128,127,126,125,0
1654,127,126,129,134,128,126,128,126,0
1657,127,128,126,128,129,127,128,130,0
1661,129,128,127,126,129,127,127,128,0
1664,128,127,126,129,128,130,127,129,0
1667,127,127,126,131,128,130,127,128,0
1670,127,127,127,131,127,128,128,129,0
1673,129,128,127,130,128,126,127,128,0
1677,128,128,127,122,128,129,128,125,0
1680,126,128,128,136,123,126,129,124,0
1683,127,128,126,120,128,130,128,131,0
1686,129,128,126,122,128,130,128,131,0
1689,129,127,126,123,129,130,127,130,0
1693,126,127,128,130,129,127,127,128,0
1696,128,128,128,125,127,130,128,127,0
1699,129,129,128,124,128,127,128,131,0
1703,128,129,126,131,127,129,128,130,0
1706,127,126,128,125,126,126,127,129,0
1720,127,128,128,127,128,127,128,129,0
1723,129,127,126,128,129,127,126,128,0
1728,129,129,129,137,124,127,128,125,0
1731,126,128,129,135,126,126,128,124,0
1737,127,128,128,122,130,128,126,128,0
1741,128,127,128,120,128,130,128,130,0
1745,127,125,128,124,128,130,127,131,0
1750,128,128,128,123,129,126,126,125,0
1757,127,127,128,129,128,129,128,129,0
1762,128,128,127,128,127,127,126,128,0
1765,128,128,129,130,129,127,126,125,0
1769,127,128,128,128,124,125,128,123,0
1772,126,128,129,137,124,128,128,130,0
1776,129,128,125,128,127,130,128,130,0
1780,128,128,128,128,129,127,127,130,0
1783,126,128,128,128,128,125,126,125,0
1791,127,127,128,137,126,126,127,130,0
1795,129,128,128,127,128,127,127,129,0
1798,129,127,128,127,128,128,128,129,0
1802,127,128,129,130,127,124,126,126,0
1805,127,127,128,128,127,127,129,129,0
1808,128,128,128,123,128,127,127,127,0
1812,128,128,126,123,129,125,128,129,0
1815,128,128,130,137,125,126,129,122,0
1818,127,128,129,138,127,126,127,130,0
1821,129,125,128,125,128,129,128,131,0
1828,129,128,128,123,128,127,127,133,0
1833,126,128,126,128,126,126,126,128,0
1836,127,127,128,127,128,128,128,129,0
1840,128,128,128,127,128,127,128,131,0
1843,129,130,129,129,128,126,127,129,0
1846,126,128,130,138,125,127,129,124,0
1850,126,127,129,134,126,128,126,130,0
1853,128,127,127,122,129,128,127,131,0
1857,129,127,126,121,129,127,127,132,0
1873,126,128,126,127,129,129,127,128,0
1878,126,127,129,125,128,128,127,128,0
1883,128,128,126,125,128,127,127,128,0
1888,129,130,129,126,127,128,127,127,0
1891,128,128,129,134,129,127,126,123,0
1895,127,128,129,131,128,130,128,127,0
1898,128,127,128,123,128,127,128,132,0
1901,129,129,128,124,129,128,126,128,0
1905,126,129,128,126,128,127,126,123,0
1908,125,128,126,123,128,127,128,128,0
1912,129,128,126,127,127,128,128,128,0
1915,129,130,129,127,127,127,128,131,0
1918,128,128,129,131,129,127,127,128,0
1922,127,127,128,130,129,128,128,129,0
1925,127,127,127,127,128,126,128,128,0
1929,129,131,127,128,127,129,128,125,0
1932,128,127,129,137,124,128,129,125,0
1935,127,127,128,136,126,127,130,126,0
1940,127,129,127,122,128,128,127,131,0
1945,128,127,127,120,128,128,128,133,0
1948,129,127,128,124,129,128,126,128,0
1951,127,127,126,128,130,128,127,130,0
1955,127,128,128,129,129,127,127,129,0
1958,129,127,126,127,128,128,128,124,0
1962,129,130,127,125,127,127,128,132,0
1965,127,128,129,121,129,126,126,128,0
1968,128,128,127,127,128,128,127,126,0
1971,128,128,128,128,127,127,128,131,0
1975,128,129,129,133,128,126,127,131,0
1984,127,127,126,126,129,126,127,128,0
1988,127,127,126,125,127,126,128,130,0
1991,129,128,128,128,128,126,127,129,0
1995,129,129,129,133,129,129,128,130,0
1998,127,127,129,135,125,126,128,125,0
2003,127,128,129,134,127,130,128,132,0
2007,129,127,126,121,127,130,128,132,0
2010,129,127,128,123,128,129,128,130,0
2020,127,128,128,134,129,127,126,128,0
2023,127,127,126,122,128,127,127,132,0
2027,129,131,126,124,129,126,127,128,0
2030,128,128,127,124,127,130,127,129,0
2034,125,129,127,127,126,126,126,123,0
2037,126,128,126,125,129,128,128,131,0
2040,129,130,126,127,129,126,126,129,0
2045,128,128,128,130,129,126,127,128,0
2048,127,129,129,128,127,126,127,127,0
2051,127,129,129,138,127,125,127,129,0
2055,129,127,128,128,126,127,129,127,0
2058,129,129,128,126,127,125,126,125,0
2061,126,131,128,132,127,125,126,127,0
2078,127,128,126,125,127,126,126,127,0
2083,128,128,128,129,128,125,125,129,0
2086,128,129,127,129,128,124,124,131,0
2090,128,127,130,140,122,123,127,129,0
2094,126,128,130,134,126,123,123,134,0
2097,128,128,126,122,128,124,124,135,0
2100,129,129,126,129,128,123,124,136,0
2103,127,129,126,126,128,123,123,134,0
2107,127,127,126,126,129,124,125,134,0
2110,126,131,126,126,129,122,125,136,0
2113,129,130,127,131,128,125,125,135,0
2116,128,130,127,124,127,122,125,133,0
2120,125,128,128,129,128,125,126,135,0
2124,128,129,128,126,127,123,128,132,0
2129,128,128,126,126,126,128,128,136,0
2134,128,127,128,124,129,129,130,128,0
2141,126,126,128,136,124,127,132,126,0
2145,127,126,126,123,127,131,130,134,0
2149,129,128,126,124,128,130,129,131,0
2152,127,127,127,126,127,130,127,125,0
2156,127,125,128,127,125,131,130,124,0
2159,127,125,128,127,125,132,131,124,0
2162,128,125,126,127,127,131,130,123,0
2166,128,125,126,131,127,130,128,119,0
2169,127,125,127,127,127,131,129,119,0
2171,125,125,127,128,126,131,130,120,0
2174,129,125,128,128,125,131,129,120,0
2177,128,125,129,135,126,131,129,120,0
2180,127,124,127,129,127,129,130,115,0
2184,126,124,127,131,125,129,130,115,0
2187,129,125,127,127,127,131,128,121,0
2190,128,123,126,127,127,131,128,122,0
2204,127,124,126,129,127,130,128,120,0
2208,126,125,126,125,126,131,129,121,0
2212,128,125,126,125,127,129,129,114,0
2215,128,126,129,141,121,130,131,120,0
2219,126,126,128,135,122,129,130,118,0
2222,126,126,129,135,124,132,128,125,0
2226,127,126,126,126,128,131,129,126,0
2228,126,127,128,125,128,131,130,125,0
2233,126,125,127,125,128,130,128,124,0
2236,127,125,126,124,128,130,129,125,0
2240,129,127,128,125,129,129,129,127,0
2250,129,127,128,128,128,129,127,123,0
2256,126,128,128,129,128,128,127,125,0
2259,127,126,127,124,129,127,126,123,0
2265,128,128,129,124,127,130,128,128,0
2271,129,129,129,127,129,126,126,124,0
2275,126,128,130,138,126,125,129,123,0
2278,126,128,129,136,125,125,127,129,0
2282,127,129,126,124,129,126,127,130,0
2287,128,128,128,125,128,129,126,127,0
2292,126,128,128,127,129,128,126,126,0
2295,125,128,127,123,129,126,126,127,0
2298,126,127,128,123,129,126,126,129,0
2302,128,128,127,124,129,128,128,128,0
2305,127,128,129,134,126,127,127,123,0
2308,127,128,127,122,130,127,125,126,0
2312,127,130,126,126,129,127,127,130,0
2315,128,129,128,127,129,129,126,128,0
2318,128,128,126,121,130,128,127,126,0
2321,127,128,128,124,129,126,126,126,0
2325,129,129,128,128,127,129,129,128,0
2328,129,128,130,139,124,128,128,128,0
2331,128,129,129,134,124,127,129,127,0
2334,127,128,128,133,125,127,128,127,0
2338,128,127,127,118,130,129,127,132,0
2341,129,128,125,120,129,128,127,131,0
2344,129,128,125,119,129,128,126,127,0
2347,127,125,127,123,129,128,128,127,0
2360,128,128,126,128,129,125,126,129,0
2364,129,126,128,128,128,128,128,129,0
2368,127,127,128,126,127,129,127,123,0
2372,126,128,128,126,128,128,128,127,0
2375,128,128,128,128,128,126,126,127,0
2380,129,128,128,130,129,126,127,127,0
2385,128,128,128,128,127,127,127,124,0
2389,127,128,127,126,129,125,127,128,0
2392,128,128,129,129,129,125,129,129,0
2395,128,128,127,126,128,127,128,129,0
2399,128,128,127,124,128,126,128,126,0
2402,126,127,128,135,123,127,130,128,0
2406,127,127,126,117,128,130,127,131,0
2409,129,127,128,120,129,129,126,131,0
2413,128,127,125,122,129,129,126,131,0
2416,128,127,126,127,129,126,127,121,0
2419,127,127,126,126,128,128,129,128,0
2422,129,128,128,123,129,126,126,129,0
2432,129,130,129,128,127,126,129,126,0
2435,127,128,129,131,128,127,128,126,0
2439,127,129,128,128,129,126,127,130,0
2444,129,128,128,126,128,127,128,131,0
2448,127,127,126,128,127,129,128,123,0
2451,128,127,128,127,126,126,129,122,0
2455,127,128,129,137,125,126,127,131,0
2458,129,129,128,127,129,127,126,130,0
2462,128,127,126,126,128,128,127,133,0
2465,127,127,126,127,129,127,126,124,0
2468,127,130,128,129,128,127,127,128,0
2472,129,127,126,126,128,127,128,131,0
2475,128,130,129,128,128,128,126,124,0
2478,127,127,126,126,128,126,126,125,0
2482,127,127,126,123,128,127,127,128,0
2486,129,128,128,125,128,126,127,131,0
2489,128,127,128,135,126,129,128,123,0
2492,126,129,128,124,126,126,127,128,0
2497,127,127,128,128,127,130,128,130,0
2505,128,127,128,135,127,128,129,123,0
2509,126,128,129,136,125,126,130,126,0
2513,127,127,128,131,123,126,128,125,0
2516,127,127,127,118,129,130,127,133,0
2520,129,130,127,120,128,129,127,134,0
2523,127,128,127,121,129,126,125,129,0
2527,127,128,128,126,129,126,128,128,0
2530,127,128,126,130,129,128,128,129,0
2541,129,128,126,128,128,125,127,130,0
2546,129,127,128,129,126,126,127,129,0
2549,127,128,128,124,127,126,126,128,0
2553,127,127,129,124,128,126,128,128,0
2557,128,127,127,128,128,126,129,130,0
2561,128,128,127,123,127,129,127,129,0
2565,127,127,129,126,128,128,129,121,0
2568,126,127,129,124,129,127,127,124,0
2587,128,127,126,124,127,128,128,128,0
2596,128,128,129,127,127,127,126,129,0
2592,128,127,126,126,128,126,125,127,0
2603,126,128,128,122,129,128,126,129,0
2608,128,128,128,124,129,127,127,130,0
2618,128,129,128,122,129,127,126,131,0
2613,129,128,129,133,127,127,126,133,0
2623,127,128,128,133,127,126,127,128,0
2627,125,130,128,126,128,126,129,132,0
2634,129,130,129,132,129,128,128,131,0
2648,129,128,127,122,128,127,127,127,0
2655,127,128,127,120,128,127,128,129,0
2660,127,127,128,130,127,129,128,126,0
2666,129,128,127,127,128,128,128,129,0
2672,128,128,129,139,121,128,130,126,0
2675,126,127,128,136,124,127,130,123,0
2679,127,128,128,126,130,128,127,131,0
2682,129,128,127,123,128,128,127,131,0
2685,128,129,128,122,129,130,126,129,0
2689,127,126,127,122,128,130,126,128,0
2692,125,127,126,127,129,128,128,127,0
2696,129,126,126,125,127,128,129,126,0
2700,128,126,126,129,127,130,128,123,0
2703,126,126,129,124,128,129,128,125,0
2707,128,127,127,125,127,127,128,125,0
2710,128,127,126,125,127,128,128,129,0
2713,128,128,129,128,125,126,128,124,0
2717,127,126,127,128,127,126,129,120,0
2720,127,126,130,135,124,128,128,131,0
2723,129,128,126,122,129,128,126,129,0
2726,128,127,129,123,127,126,127,129,0
2732,128,127,126,125,128,128,127,125,0
2735,127,127,126,123,128,129,128,127,0
2738,129,127,128,125,128,128,128,128,0
2742,128,128,129,129,129,126,127,128,0
2746,128,128,129,130,124,128,130,123,0
2749,126,126,128,136,124,126,130,122,0
2752,129,128,128,127,129,128,127,131,0
2756,128,127,126,121,128,130,128,132,0
2759,127,126,126,127,128,131,127,128,0
2762,127,127,127,122,129,127,127,128,0
2765,129,128,128,126,128,128,127,130,0
2768,128,127,127,126,128,129,126,126,0
2773,127,127,126,124,130,128,127,126,0
2778,126,127,129,130,129,127,126,127,0
2782,128,129,129,124,127,128,127,125,0
2785,128,127,126,126,127,128,127,123,0
2788,127,127,128,130,128,126,129,123,0
2791,126,127,130,137,124,129,128,125,0
2794,129,127,126,122,127,128,128,130,0
2796,129,128,126,125,128,129,128,132,0
2799,126,127,129,135,126,128,126,125,0
2802,126,126,128,130,129,127,127,128,0
2805,129,127,126,124,126,129,129,129,0
2808,129,128,127,129,126,128,128,129,0
2812,127,128,129,138,124,126,129,123,0
2815,126,127,129,137,124,126,127,127,0
2818,127,128,128,125,128,129,128,133,0
2822,129,128,127,125,128,127,126,128,0
2827,128,127,128,125,127,129,127,124,0
2831,127,126,127,128,128,127,127,126,0
2835,128,127,126,124,127,129,128,131,0
2838,129,128,126,129,127,126,127,131,0
2842,128,130,129,137,125,126,129,123,0
2845,127,127,128,139,124,127,129,125,0
2848,128,127,125,121,128,128,128,132,0
2852,129,128,127,121,128,127,127,132,0
2857,128,128,127,129,128,129,128,129,0
2860,127,127,126,129,128,129,128,129,0
2864,128,129,126,131,128,125,128,130,0
2867,129,129,127,128,127,127,126,127,0
2870,128,128,128,126,126,125,125,124,0
2873,126,127,129,135,125,126,129,122,0
2879,128,129,126,120,129,127,127,131,0
2883,129,129,127,126,129,127,127,131,0
2886,128,127,128,129,129,127,127,128,0
2891,125,127,129,137,128,127,127,125,0
2897,127,127,128,128,127,128,127,129,0
2901,128,127,128,127,127,128,128,128,0
2904,128,127,128,127,128,127,127,128,0
2908,125,127,130,134,123,126,129,122,0
2911,126,127,129,131,128,130,128,129,0
2914,129,127,126,124,128,128,127,130,0
2917,129,128,126,121,130,127,126,129,0
2921,126,127,128,123,129,127,127,123,0
2924,127,127,128,125,129,126,128,128,0
2927,129,129,128,125,127,128,127,128,0
2930,128,127,126,126,128,129,127,129,0
2934,127,127,127,127,128,126,129,121,0
2937,126,127,129,136,128,128,128,128,0
2940,129,127,126,123,127,126,127,131,0
2944,128,129,126,125,127,129,128,121,0
2947,127,127,126,134,128,127,128,120,0
2951,127,127,130,138,125,126,127,129,0
2954,129,127,126,122,127,128,128,129,0
2957,128,127,128,131,127,128,128,127,0
2964,127,126,128,128,128,126,127,128,0
2969,127,127,129,134,129,127,127,129,0
2973,129,128,128,129,128,127,128,126,0
2976,128,129,128,133,127,128,127,128,0
2980,126,128,127,127,128,127,126,125,0
2983,124,127,129,138,124,127,131,123,0
2987,128,129,127,125,129,128,126,129,0
2991,128,127,128,127,127,128,127,129,0
3041,127,127,126,128,127,127,129,123,0
3047,126,127,129,135,126,126,127,132,0
3056,128,127,128,119,127,129,128,134,0
3065,129,128,128,125,129,126,127,131,0
3069,128,130,129,136,126,128,126,123,0
3112,126,127,128,122,128,127,128,129,0
3125,128,127,126,126,127,128,127,131,0
3132,129,129,128,129,128,129,128,131,0
3138,127,126,128,123,129,126,126,126,0
3144,126,126,128,126,127,127,129,130,0
3147,128,130,129,128,129,126,127,130,0
3177,129,128,128,138,128,127,126,125,0
3184,126,127,129,137,122,127,130,123,0
3191,126,127,128,137,124,126,129,127,0
3198,128,127,127,125,128,129,128,131,0
3204,129,127,125,122,129,127,127,131,0
3246,128,127,126,125,129,126,126,130,0
3257,125,126,128,124,128,128,128,130,0
3265,128,127,126,125,128,127,127,128,0
3270,128,127,126,126,126,127,127,124,0
3275,128,129,128,128,127,127,127,125,0
3280,126,127,127,125,127,127,127,126,0
3284,127,127,127,123,128,126,126,128,0
3287,129,127,126,130,126,127,127,129,0
3290,128,127,129,131,128,126,127,122,0
3299,128,128,127,126,126,128,129,124,0
3294,126,127,129,134,128,126,127,126,0
3303,128,129,128,124,128,126,128,127,0
3309,128,127,127,123,129,127,129,124,0
3312,126,127,129,135,124,126,130,123,0
3315,126,127,129,124,128,128,127,130,0
3318,129,129,128,121,128,128,128,132,0
3321,128,127,125,123,130,128,126,128,0
3325,127,126,128,126,128,131,127,127,0
3328,127,127,126,128,127,129,128,128,0
3331,129,127,128,125,128,129,128,131,0
3335,128,129,129,130,127,127,126,123,0
3338,127,128,128,136,129,128,127,126,0
3341,127,127,128,132,127,128,127,125,0
3345,128,127,129,129,129,127,127,127,0
3348,128,127,127,129,128,126,128,123,0
3352,127,129,129,136,129,127,126,122,0
3355,126,126,129,137,123,130,128,132,0
3363,130,128,126,122,129,128,128,130,0
3367,129,127,128,124,128,128,127,132,0
3371,127,127,127,126,130,126,126,128,0
3374,126,126,128,127,129,127,130,120,0
3377,128,128,128,125,129,128,128,131,0
3381,128,128,128,131,128,126,128,124,0
3384,127,128,129,136,125,126,128,123,0
3388,127,128,129,137,123,127,128,131,0
3391,129,128,125,119,128,129,128,131,0
3394,129,128,126,122,128,128,127,132,0
3397,128,127,128,130,130,129,128,121,0
3401,126,129,128,123,128,129,127,127,0
3404,128,127,126,129,126,129,128,130,0
3450,128,128,128,129,127,127,128,131,0
3459,126,127,129,126,127,126,127,128,0
3465,126,127,127,124,127,126,127,128,0
3517,129,129,127,128,127,127,127,128,0
3528,129,131,129,133,128,128,128,123,0
3538,127,127,128,135,128,127,128,121,0
3545,125,126,128,135,123,127,130,122,0
3550,128,127,125,122,128,128,127,131,0
3555,129,127,128,127,129,128,126,129,0
3559,126,126,128,124,128,127,127,128,0
3562,125,126,128,122,128,127,127,127,0
3566,129,126,126,123,128,128,127,130,0
3569,129,127,129,128,126,130,128,128,0
3573,128,130,126,127,126,126,126,125,0
3576,127,128,129,135,128,128,129,127,0
3580,127,127,128,126,128,128,127,129,0
3583,129,129,127,125,129,127,127,125,0
3587,127,127,129,126,126,127,129,122,0
3590,126,128,129,135,125,126,129,124,0
3593,127,126,127,124,127,128,128,131,0
3597,129,127,126,122,129,127,126,130,0
3600,128,126,126,121,130,127,127,128,0
3603,127,127,128,130,129,126,128,127,0
3606,128,128,127,127,128,127,128,132,0
3609,129,128,127,130,129,126,127,131,0
3613,127,128,129,136,126,128,129,124,0
3616,126,127,129,137,125,127,129,124,0
3618,127,128,128,124,128,128,127,131,0
3621,129,128,126,122,129,126,127,133,0
3624,129,127,128,121,129,127,126,129,0
3629,127,127,126,125,127,127,127,130,0
3634,126,130,126,123,129,126,127,130,0
3637,129,129,128,126,127,127,126,129,0
3640,128,129,128,134,130,127,126,126,0
3650,127,127,126,135,128,127,129,122,0
3653,127,127,129,137,128,127,127,131,0
3656,128,129,126,123,128,128,127,129,0
3667,129,127,126,122,128,128,127,125,0
3672,127,129,128,133,127,129,128,128,0
3676,127,127,126,130,129,126,127,127,0
3679,129,128,127,131,128,128,127,129,0
3682,128,129,127,127,128,126,128,124,0
3686,125,127,129,136,125,127,129,123,0
3690,126,127,128,135,129,127,129,130,0
3693,129,128,126,121,129,127,127,129,0
3696,128,126,128,134,129,128,127,127,0
3699,128,126,126,119,129,126,126,127,0
3703,127,128,128,128,126,129,129,126,0
3716,129,128,127,128,128,126,128,132,0
3720,128,127,128,124,127,128,127,128,0
3724,127,128,127,125,127,127,126,125,0
3728,126,127,129,134,128,129,127,127,0
3731,128,129,129,129,128,127,127,131,0
3734,128,127,129,123,128,126,126,129,0
3738,127,129,130,138,122,126,130,123,0
3741,126,127,129,135,126,127,128,129,0
3787,127,130,126,125,129,127,127,130,0
3799,127,129,126,120,129,128,127,129,0
3812,127,126,128,126,128,128,127,127,0
3818,127,127,129,138,128,128,128,131,0
3823,129,130,128,129,129,128,127,130,0
3827,129,127,126,125,129,127,128,128,0
3830,126,127,127,126,128,130,127,126,0
3834,127,126,128,126,127,131,127,128,0
3837,128,128,128,128,126,131,128,129,0
3841,128,127,128,130,128,127,127,127,0
3844,127,127,126,131,123,126,130,124,0
3848,126,126,129,137,124,126,128,131,0
3851,128,127,126,120,128,127,128,132,0
3855,128,127,126,125,128,127,127,128,0
3858,128,126,126,129,129,127,127,129,0
3861,126,129,128,127,128,128,127,126,0
3865,128,127,126,125,128,130,128,128,0
3869,129,127,128,129,129,126,128,129,0
3872,128,127,129,139,124,128,129,123,0
3876,126,127,129,136,124,127,129,121,0
3879,126,127,125,120,129,127,128,128,0
3882,129,128,127,121,129,127,127,130,0
3885,128,129,126,125,129,127,126,128,0
3889,126,126,127,122,129,129,128,131,0
3891,128,127,128,129,128,128,127,130,0
3895,129,129,128,127,127,127,127,127,0
3897,126,129,128,134,127,127,127,120,0
3901,126,127,129,139,123,128,129,123,0
3904,127,127,128,124,129,127,127,132,0
3907,129,128,126,123,129,127,127,130,0
3910,128,129,128,123,128,128,127,124,0
3913,127,127,129,139,127,128,129,123,0
3915,126,127,125,123,127,128,128,130,0
3919,129,129,126,121,128,127,128,129,0
3923,128,127,126,123,127,126,127,125,0
3927,127,127,128,123,128,128,127,127,0
3934,128,127,129,126,129,127,127,128,0
3937,129,130,127,128,125,126,127,127,0
3940,128,129,129,135,128,126,126,128,0
3943,127,127,127,129,124,125,129,121,0
3946,126,128,129,137,128,128,127,126,0
3949,129,129,128,124,128,128,127,131,0
3953,128,127,128,130,127,128,128,123,0
3956,127,127,128,123,128,127,126,128,0
3959,127,127,128,128,127,129,128,126,0
3968,129,126,127,126,127,128,128,128,0
3972,128,127,128,125,128,127,126,126,0
3976,127,126,129,137,122,126,130,125,0
3980,126,126,127,136,125,127,127,131,0
3984,129,127,127,121,127,130,128,129,0
3987,129,127,126,124,129,127,126,127,0
3990,127,126,128,122,128,129,127,128,0
3993,127,127,129,128,128,127,127,128,0
3996,129,127,126,124,127,128,127,131,0
4000,127,130,126,127,129,126,127,128,0
4002,125,128,128,134,128,130,126,125,0
4006,127,127,129,127,127,127,128,122,0
4010,129,128,128,125,129,127,126,126,0
4013,128,128,128,127,127,126,127,126,0
4016,127,127,128,131,127,127,127,120,0
4018,126,127,130,135,125,129,130,125,0
4021,129,126,125,122,128,128,127,133,0
4025,129,130,126,120,129,128,127,128,0
4028,127,126,128,126,128,128,129,122,0
4031,126,127,129,139,125,127,126,130,0
4035,128,127,127,122,127,128,129,133,0
4042,129,128,126,124,129,127,126,129,0
4046,127,127,126,129,128,129,128,121,0
4048,125,126,126,128,127,130,128,130,0
4052,129,127,127,129,127,128,128,128,0
4057,129,127,128,125,128,128,128,128,0
4060,127,127,128,132,127,127,128,122,0
4063,126,127,126,121,129,127,128,129,0
4067,128,128,128,128,128,127,127,125,0
4070,128,129,127,127,127,128,128,125,0
4074,127,129,129,131,127,127,126,123,0
4079,126,127,128,133,124,127,129,123,0
4083,127,128,128,119,129,128,127,132,0
4086,129,127,128,125,128,130,128,130,0
4089,127,127,126,123,128,130,127,128,0
4093,127,126,128,128,129,128,127,130,0
4098,128,128,128,125,127,128,127,128,0
4101,128,127,126,125,128,127,128,130,0
4106,128,129,129,129,129,127,126,125,0
4109,125,128,127,129,129,127,126,127,0
4112,127,127,127,129,127,127,129,128,0
4116,129,128,129,130,129,126,128,127,0
4119,128,128,128,129,129,127,126,126,0
4122,127,128,129,126,129,128,127,128,0
4126,127,127,128,130,127,128,128,129,0
4129,129,129,127,132,128,127,127,129,0
4132,128,127,129,137,123,126,130,125,0
4135,126,128,128,135,123,127,130,123,0
4138,127,127,126,122,128,130,128,132,0
4142,130,129,128,122,129,126,127,132,0
4146,127,129,127,123,128,130,128,131,0
4153,127,126,127,123,129,127,126,126,0
4157,127,127,128,127,126,130,129,127,0
4161,129,127,127,125,128,127,127,131,0
4164,129,129,129,125,128,127,126,128,0
4167,127,128,127,137,128,125,127,126,0
4171,127,129,128,128,127,128,128,128,0
4174,128,127,128,125,127,127,127,129,0
4177,129,129,127,123,128,126,126,124,0
4180,127,129,127,134,125,126,129,122,0
4184,126,128,130,136,127,128,128,132,0
4187,129,129,128,120,128,127,127,130,0
4190,128,126,126,122,127,130,127,127,0
4194,127,126,128,130,128,126,129,122,0
4197,126,127,129,137,126,127,128,130,0
4200,129,128,126,123,129,129,128,130,0
4203,129,128,126,123,129,126,126,127,0
4206,126,126,126,122,128,130,126,122,0
4210,127,127,128,125,128,130,128,128,0
4213,129,128,128,123,129,127,126,128,0
4217,127,128,127,128,128,127,127,127,0
4220,126,129,129,137,124,127,129,122,0
4223,126,127,129,135,127,126,127,131,0
4227,129,127,126,123,128,130,129,133,0
4230,129,130,126,122,129,128,127,131,0
4233,127,127,126,122,129,126,126,122,0
4236,124,127,127,121,128,130,128,128,0
4241,128,130,128,123,128,127,128,130,0
4245,129,128,126,126,127,128,126,127,0
4250,127,127,129,140,123,127,129,122,0
4253,126,127,129,135,128,127,127,131,0
4257,127,130,126,122,128,128,128,129,0
4265,128,128,127,124,127,130,128,130,0
4271,128,128,126,128,128,127,127,130,0
4275,127,127,128,125,127,127,128,128,0
4278,128,128,128,131,128,127,127,129,0
4281,128,128,127,127,127,128,128,128,0
4285,125,130,129,127,128,128,125,121,0
4288,126,126,129,136,125,127,130,124,0
4292,128,128,126,123,129,128,127,133,0
4295,129,128,126,123,130,126,126,129,0
4299,126,129,129,135,130,126,126,129,0
4302,127,125,126,126,129,128,126,125,0
4305,128,127,126,124,129,128,127,126,0
4309,129,127,126,127,128,129,128,128,0
4312,128,127,128,134,124,126,129,122,0
4315,126,127,129,137,125,126,130,122,0
4319,126,129,127,123,128,127,128,132,0
4322,129,127,128,124,129,127,128,130,0
4325,128,127,127,122,128,129,127,130,0
4328,126,129,127,128,129,127,126,126,0
4332,126,128,128,127,128,127,127,129,0
4335,129,127,126,125,128,127,128,129,0
4339,128,129,128,125,127,126,127,128,0
4342,127,127,128,128,128,127,127,127,0
4345,127,127,126,125,126,128,128,129,0
4349,129,127,127,129,127,127,129,127,0
4352,128,127,129,130,128,126,127,128,0
4355,127,127,129,127,128,127,127,126,0
4358,127,130,129,136,127,128,129,126,0
4362,128,127,128,129,126,127,127,123,0
4365,126,129,129,139,121,128,130,127,0
4368,126,127,129,135,123,127,130,123,0
4372,127,127,127,125,127,128,127,130,0
4378,129,126,128,123,129,128,127,132,0
4382,127,128,128,124,128,128,126,127,0
4385,127,126,128,122,129,127,126,127,0
4388,126,127,128,126,128,128,127,128,0
4391,128,128,127,124,127,127,126,128,0
4395,128,127,128,126,127,129,127,131,0
4398,127,128,129,121,129,127,127,128,0
4402,127,129,127,130,129,127,127,127,0
4405,128,128,129,129,128,127,128,130,0
4408,128,128,127,128,128,126,127,127,0
4411,127,127,128,136,129,126,127,127,0
4415,127,128,129,137,123,130,129,123,0
4417,128,128,126,119,129,128,126,129,0
4420,129,127,126,120,129,128,127,131,0
4423,128,128,129,127,130,127,127,128,0
4427,127,127,128,127,129,127,127,131,0
4430,129,128,126,125,128,128,129,130,0
4434,128,129,129,133,129,127,127,124,0
4437,127,128,129,137,125,127,129,122,0
4440,126,128,130,137,124,127,129,125,0
4442,128,127,128,124,129,128,127,131,0
4447,129,127,128,122,129,128,127,132,0
4451,127,128,129,133,129,126,128,122,0
4455,125,127,129,132,128,127,129,131,0
4457,129,128,127,118,129,127,127,133,0
4460,129,127,129,124,128,127,128,129,0
4464,128,128,127,123,128,126,126,125,0
4468,127,127,128,136,124,129,130,124,0
4473,128,128,125,122,128,128,127,131,0
4477,129,130,128,123,129,128,126,129,0
4481,127,127,128,125,129,128,126,126,0
4487,127,127,127,122,128,128,128,121,0
4490,128,127,127,128,127,128,128,129,0
4493,129,128,128,124,129,126,127,131,0
4496,127,127,128,137,124,126,130,123,0
4499,126,127,129,135,126,129,128,131,0
4502,129,127,125,126,129,128,127,131,0
4507,129,128,127,125,127,129,126,130,0
4510,128,127,126,121,129,127,127,129,0
4513,125,127,128,128,128,127,127,126,0
4519,128,127,127,125,126,128,128,128,0
4523,129,128,126,125,129,127,126,129,0
4527,128,127,127,129,127,127,126,124,0
4530,127,127,129,127,127,128,128,121,0
4533,127,127,126,129,127,128,127,129,0
4536,128,128,127,126,128,127,128,130,0
4540,128,127,128,140,128,126,128,132,0
4543,127,127,129,137,126,127,126,121,0
4546,127,127,127,125,128,127,127,130,0
4551,128,127,127,125,128,127,129,128,0
4554,128,127,127,135,127,126,127,130,0
4557,127,129,128,126,128,126,129,122,0
4560,126,127,129,137,125,126,127,131,0
4563,129,129,126,122,128,126,127,124,0
4572,128,127,127,125,129,128,128,122,0
4576,127,127,129,132,126,126,129,124,0
4580,128,128,129,126,129,128,128,130,0
4584,129,128,127,122,128,128,128,133,0
4588,129,127,128,123,130,127,126,128,0
4592,127,127,128,125,128,128,127,124,0
4598,127,128,128,128,128,128,127,128,0
4602,128,128,128,123,129,126,127,132,0
4606,129,127,127,126,128,128,127,127,0
4609,127,128,127,138,127,129,129,122,0
4612,127,128,129,136,128,128,127,129,0
4615,129,129,126,123,127,128,128,132,0
4619,129,128,128,125,129,127,126,129,0
4622,125,129,128,129,126,127,128,120,0
4626,126,127,130,137,124,127,127,130,0
4629,129,127,126,123,128,128,127,132,0
4632,129,127,127,122,129,127,126,128,0
4635,127,126,128,123,129,128,126,124,0
4638,125,128,129,136,129,127,126,126,0
4640,129,127,126,122,129,129,127,128,0
4643,129,127,126,128,127,129,128,124,0
4646,127,127,130,139,126,127,129,123,0
4649,126,127,129,135,128,130,129,132,0
4652,129,128,127,120,129,128,127,133,0
4656,129,128,128,122,129,128,127,128,0
4660,127,128,128,124,127,127,128,127,0
4664,127,127,128,125,128,128,128,127,0
4667,128,128,127,124,129,126,127,130,0
4671,129,128,126,124,127,129,128,125,0
4675,127,128,129,138,125,128,129,123,0
4678,126,127,128,134,129,128,127,129,0
4680,128,127,128,122,128,128,128,129,0
4683,128,127,126,124,128,129,128,127,0
4686,127,127,128,125,128,127,127,127,0
4689,127,127,128,126,128,128,126,124,0
4692,128,129,128,130,129,128,126,127,0
4696,128,127,126,122,128,130,127,129,0
4703,128,129,129,136,124,128,129,122,0
4707,127,127,128,134,125,129,127,130,0
4709,128,127,127,121,127,130,129,133,0
4712,129,128,125,120,129,127,127,129,0
4715,128,126,128,125,130,127,127,127,0
4718,127,127,126,127,129,126,129,125,0
4721,128,127,128,131,128,126,128,128,0
4724,129,130,127,125,128,126,127,126,0
4727,126,129,129,129,127,127,128,128,0
4730,127,127,127,124,126,127,127,123,0
4734,128,127,128,132,128,127,128,131,0
4737,129,128,128,134,126,128,127,123,0
4740,127,127,127,126,128,128,128,127,0
4744,126,127,128,137,126,126,129,123,0
4747,127,127,126,128,126,128,128,130,0
4750,128,127,127,126,128,126,128,129,0
4753,128,129,129,139,124,127,129,124,0
4756,127,126,129,138,124,127,129,125,0
4759,127,129,125,121,129,126,126,131,0
4762,129,129,128,124,126,128,127,126,0
4765,129,129,128,126,127,128,128,128,0
4770,127,126,126,123,127,127,128,127,0
4773,126,127,126,124,128,127,127,128,0
4776,129,127,126,123,127,128,129,129,0
4779,129,130,129,136,126,127,126,124,0
4782,127,127,126,122,129,127,126,127,0
4786,126,127,128,125,126,129,129,128,0
4791,129,127,127,127,126,127,126,128,0
4795,128,127,129,132,126,126,126,125,0
4798,126,127,128,133,123,126,130,123,0
4803,127,126,128,131,129,130,129,130,0
4808,129,126,127,121,129,127,127,132,0
4812,129,128,128,122,129,127,125,127,0
4817,127,126,128,122,128,129,127,129,0
4820,126,130,127,130,129,128,128,128,0
4823,128,126,126,123,127,127,127,127,0
4827,128,127,129,126,128,127,126,127,0
4830,127,129,129,131,129,126,125,127,0
4833,127,127,127,126,127,128,129,127,0
4835,128,129,128,125,128,126,127,126,0
4838,126,128,128,128,128,128,127,127,0
4841,127,129,129,139,125,127,129,122,0
4844,126,127,129,138,125,129,128,129,0
4846,128,127,128,122,128,128,127,130,0
4849,128,127,126,123,128,127,127,123,0
4853,127,127,128,122,128,127,127,127,0
4856,126,129,128,127,127,127,127,126,0
4859,128,127,128,124,128,126,126,125,0
4862,128,130,128,131,128,124,128,121,0
4866,125,128,129,141,126,124,128,122,0
4874,127,126,129,137,124,125,126,129,0
4880,128,129,127,125,127,127,128,130,0
4884,129,129,128,127,129,124,127,128,0
4889,127,127,130,137,124,127,129,123,0
4893,126,127,127,123,128,127,129,119,0
4898,129,130,128,124,129,126,127,130,0
4901,129,127,128,122,128,127,128,130,0
4905,128,128,128,123,128,127,128,129,0
4908,125,129,128,129,128,126,127,127,0
4912,128,126,129,128,127,128,128,128,0
4916,128,128,128,128,128,127,128,131,0
4923,128,128,129,130,129,128,127,130,0
4927,125,128,129,140,126,126,130,123,0
4930,128,127,127,126,129,127,128,133,0
4934,129,129,128,125,128,128,127,127,0
4937,128,126,128,126,128,128,126,121,0
4940,125,127,128,140,125,125,129,123,0
4944,128,127,127,126,128,128,127,131,0
4948,129,127,128,123,129,128,126,127,0
4951,126,126,128,123,129,128,126,127,0
4954,127,126,126,127,128,127,128,125,0
4957,128,126,126,126,127,127,128,128,0
4960,129,127,128,124,126,129,127,130,0
4966,127,128,126,126,129,128,126,121,0
4962,129,127,128,129,129,127,126,128,0
4969,125,128,128,127,127,128,128,121,0
4973,128,128,128,125,128,128,128,129,0
4976,128,129,128,132,128,126,126,124,0
4979,126,126,128,135,122,128,131,125,0
4981,126,127,128,124,128,129,128,129,0
4985,129,127,127,124,128,129,127,129,0
4989,128,127,128,123,128,130,127,129,0
4992,128,127,127,123,129,129,126,127,0
4995,127,126,127,127,127,129,128,128,0
4999,128,127,126,123,128,128,127,132,0
5002,128,127,126,129,127,128,125,124,0
5005,127,127,126,133,129,129,125,125,0
5009,125,127,129,125,127,129,128,128,0
5011,129,128,128,128,128,128,127,127,0
5017,128,127,128,129,127,128,127,127,0
5020,125,128,129,138,125,127,130,122,0
5024,127,127,129,131,127,129,128,129,0
5030,129,127,128,125,127,128,128,133,0
5035,129,127,126,124,127,128,127,131,0
5039,125,127,127,126,129,128,128,122,0
5042,127,127,128,122,128,129,128,128,0
5048,129,127,128,122,128,128,127,130,0
5052,129,130,128,126,128,128,126,127,0
5055,126,127,129,131,128,129,126,126,0
5058,127,126,127,128,127,129,128,128,0
5062,128,127,128,123,128,129,128,130,0
5065,129,128,128,125,129,127,127,129,0
5068,128,127,129,122,129,129,126,128,0
5072,127,127,128,124,128,127,127,129,0
5075,129,128,128,127,127,130,128,131,0
5080,128,128,128,135,126,128,129,125,0
5085,127,127,129,133,123,129,130,125,0
5089,125,127,127,134,125,130,127,130,0
5092,129,126,127,120,127,128,127,132,0
5095,129,127,128,122,128,130,127,130,0
5099,128,126,127,123,129,130,127,130,0
5102,126,127,126,120,129,127,128,128,0
5106,128,129,128,124,127,127,128,131,0
5109,129,128,126,127,128,127,126,129,0
5113,127,126,128,129,127,126,126,123,0
5116,125,126,128,126,128,127,127,125,0
5120,128,127,126,126,127,129,128,129,0
5122,129,128,128,127,129,126,126,127,0
5125,127,127,129,130,129,128,127,128,0
5128,127,127,129,134,128,127,126,127,0
5131,128,128,128,130,128,125,128,131,0
5136,128,128,126,126,127,126,126,126,0
5139,128,130,129,137,123,127,129,125,0
5143,126,126,128,133,124,126,128,128,0
5149,128,127,127,120,129,127,126,132,0
5155,127,129,128,121,128,128,127,128,0
5158,127,126,128,129,128,129,128,127,0
5161,127,127,126,130,128,128,128,127,0
5164,128,128,126,127,128,127,127,128,0
5167,129,127,128,129,128,127,127,126,0
5175,128,127,128,128,127,129,128,125,0
5179,127,128,127,127,128,127,128,123,0
5183,127,127,126,127,127,130,126,127,0
5187,128,128,128,127,128,128,126,125,0
5190,126,130,128,127,128,126,125,122,0
5194,126,127,129,135,123,126,130,124,0
5197,127,126,129,129,128,129,128,133,0
5200,130,128,125,122,129,126,127,132,0
5204,129,127,128,125,127,126,126,127,0
5207,127,126,128,126,130,125,126,126,0
5210,128,127,128,127,129,124,128,131,0
5213,129,128,128,128,127,126,126,131,0
5216,128,129,128,124,128,126,127,125,0
5220,127,126,128,127,128,125,127,128,0
5223,127,127,128,128,127,127,129,127,0
5227,129,128,128,132,129,126,128,131,0
5230,128,128,128,137,126,126,129,126,0
5233,127,127,129,135,126,127,130,123,0
5237,127,127,128,134,127,130,128,131,0
5240,129,127,125,123,130,128,127,131,0
5243,128,129,127,124,128,128,127,131,0
5247,127,127,126,121,129,127,126,128,0
5250,127,126,126,123,127,128,129,129,0
5257,129,128,128,125,128,127,128,131,0
5260,129,127,128,126,128,127,126,128,0
5264,127,127,128,126,128,130,127,127,0
5269,127,127,126,132,126,129,128,126,0
5273,128,127,126,126,127,129,128,129,0
5277,129,128,129,126,126,127,130,124,0
5280,127,127,130,138,124,130,129,122,0
5283,126,127,128,125,128,128,128,129,0
5287,128,127,125,123,128,128,129,130,0
5290,128,128,128,123,129,127,126,129,0
5294,127,128,129,127,128,126,126,126,0
5297,126,126,126,126,127,128,128,126,0
5300,128,127,128,125,128,128,127,128,0
5304,128,129,127,125,127,128,127,124,0
5309,126,129,129,137,125,127,129,124,0
5312,126,127,129,137,124,129,129,123,0
5318,129,127,126,119,128,128,127,132,0
5315,128,127,126,121,127,131,128,133,0
5322,126,129,128,125,129,128,127,127,0
5325,127,126,126,123,128,127,127,129,0
5330,128,127,128,123,129,128,127,130,0
5336,128,127,127,127,130,127,127,125,0
5341,128,127,127,127,128,126,126,127,0
5344,126,126,126,127,129,129,128,128,0
5347,128,127,128,131,128,129,128,129,0
5351,129,128,126,129,129,127,127,125,0
5354,127,128,128,136,124,126,130,125,0
5358,126,128,128,136,124,126,125,132,0
5361,128,129,127,122,129,128,128,132,0
5365,129,129,128,123,129,128,127,129,0
5368,128,126,127,122,129,128,127,131,0
5371,126,129,128,126,129,130,127,126,0
5376,128,127,127,128,128,128,129,128,0
5382,129,128,126,126,128,127,126,129,0
5387,128,126,128,128,127,127,127,124,0
5391,127,126,126,125,128,127,127,121,0
5394,127,127,126,124,127,129,129,131,0
5401,129,128,129,129,128,127,129,123,0
5405,128,127,127,125,127,127,126,128,0
5408,127,126,127,127,129,126,128,124,0
5412,127,127,126,125,128,128,129,126,0
5415,128,127,126,128,127,128,128,121,0
5418,126,127,130,140,125,129,129,124,0
5422,126,127,129,136,125,127,129,123,0
5425,127,127,125,123,129,128,129,130,0
5428,129,129,126,123,129,127,127,132,0
5431,127,128,128,125,128,129,126,127,0
5434,127,127,128,124,128,129,128,129,0
5437,127,130,126,119,128,126,127,127,0
5442,128,127,126,128,127,129,128,128,0
5446,128,127,126,132,128,127,128,124,0
5450,125,127,126,126,128,127,127,127,0
5453,127,129,127,128,128,126,128,130,0
5457,128,129,129,129,129,126,128,131,0
5460,128,128,127,128,127,126,129,124,0
5463,127,129,129,136,125,126,129,122,0
5470,128,128,126,121,129,128,127,129,0
5467,126,126,129,138,125,128,127,130,0
5478,129,129,128,124,128,130,128,127,0
5483,127,127,126,125,128,126,127,127,0
5487,127,127,128,124,128,128,128,127,0
5490,129,127,128,127,128,128,127,129,0
5494,128,127,128,134,127,127,127,129,0
5499,127,127,126,137,124,126,129,122,0
5503,127,127,129,138,125,129,128,128,0
5509,128,127,126,120,127,130,127,132,0
5515,129,127,126,123,130,127,125,126,0
5518,127,127,129,134,125,126,129,124,0
5522,127,126,128,133,126,130,127,129,0
5525,129,127,125,120,129,129,127,133,0
5528,129,129,125,122,129,128,128,132,0
5531,125,128,126,130,128,129,128,128,0
5535,126,127,128,126,129,127,127,128,0
5538,128,127,128,130,127,127,128,130,0
5542,129,127,127,125,127,127,127,131,0
5545,126,128,128,125,129,126,126,127,0
5548,127,127,128,125,128,129,126,128,0
5552,128,127,126,122,128,126,128,130,0
5555,129,128,128,133,127,126,128,130,0
5559,126,127,128,127,127,125,127,121,0
5562,125,127,129,136,128,127,128,129,0
5565,128,127,126,126,128,127,128,131,0
5569,129,128,128,134,127,127,127,130,0
5572,128,127,128,126,126,126,126,128,0
5575,127,127,126,133,127,128,128,129,0
5578,127,127,126,126,127,128,129,128,0
5582,129,128,126,131,128,127,128,128,0
5586,128,127,130,136,122,127,130,125,0
5589,126,126,129,136,125,126,128,131,0
5593,128,127,127,124,129,128,127,132,0
5596,129,127,126,122,127,129,127,132,0
5599,128,127,126,121,128,130,127,127,0
5602,126,127,126,130,129,127,126,130,0
5605,126,129,126,128,129,127,126,126,0
5610,129,127,128,125,127,128,127,129,0
5615,128,127,128,124,127,127,128,130,0
5618,127,126,128,130,127,129,127,126,0
5621,127,128,128,128,128,126,129,130,0
5624,129,128,128,127,128,125,128,131,0
5628,128,128,128,129,124,127,129,124,0
5632,126,128,129,137,125,126,129,124,0
5636,126,128,125,122,127,127,128,132,0
5639,129,128,126,120,129,127,125,129,0
5644,126,127,128,123,128,130,127,126,0
5647,127,126,128,123,128,130,128,124,0
5652,128,127,127,123,128,129,128,126,0
5655,129,127,127,128,128,126,128,131,0
5657,128,127,128,127,125,128,129,124,0
5660,127,126,129,139,124,126,129,124,0
5663,126,127,125,123,129,128,128,130,0
5669,129,128,126,121,128,128,128,129,0
5672,127,126,128,126,128,127,127,129,0
5675,127,128,128,124,128,130,127,128,0
5678,127,127,127,124,129,127,127,128,0
5682,129,129,129,126,128,127,127,127,0
5685,128,128,129,131,128,126,127,128,0
5688,125,127,129,139,126,127,129,123,0
5691,126,126,128,134,128,128,126,129,0
5695,129,127,125,122,129,127,127,132,0
5698,128,127,126,119,128,130,127,129,0
5701,127,127,128,121,129,129,126,127,0
5707,127,128,128,128,128,126,127,128,0
5711,129,129,128,125,129,126,126,128,0
5714,128,129,126,127,128,126,127,128,0
5719,126,127,126,122,130,127,126,128,0
5725,126,126,126,122,129,129,129,125,0
5732,129,128,129,131,129,126,128,129,0
5736,128,128,128,133,126,126,128,128,0
5739,127,127,129,138,121,126,129,124,0
5743,126,126,130,135,124,126,129,129,0
5747,129,130,128,123,129,128,127,133,0
5750,129,128,128,126,130,127,126,131,0
5753,128,127,128,126,130,128,127,129,0
5757,125,129,128,127,128,128,127,129,0
5760,128,127,126,124,127,128,128,129,0
5764,129,129,128,124,127,127,127,125,0
5767,128,127,129,130,128,126,128,126,0
5770,127,127,128,127,127,129,128,128,0
5780,128,128,128,124,126,129,128,131,0
5784,128,129,128,127,129,126,128,122,0
5788,126,127,128,136,123,126,128,123,0
5793,127,127,129,135,124,128,128,129,0
5798,128,127,125,123,128,127,127,132,0
5801,129,129,128,120,129,127,128,132,0
5804,128,129,127,128,129,126,126,125,0
5808,127,126,128,126,129,127,126,128,0
5811,128,127,128,125,127,128,129,124,0
5815,129,127,128,127,127,128,128,131,0
5818,125,130,127,122,129,126,126,122,0
5821,126,127,128,137,125,127,129,125,0
5825,128,127,128,121,127,128,127,130,0
5827,129,127,128,121,127,130,128,130,0
5830,128,128,128,131,127,129,128,126,0
5834,127,127,126,128,128,126,128,128,0
5839,128,127,127,123,128,127,127,128,0
5845,129,129,128,128,127,127,127,127,0
5850,128,127,128,125,127,126,129,124,0
5853,126,127,129,138,125,127,129,123,0
5856,128,127,126,119,128,128,127,132,0
5859,129,130,126,124,129,128,127,126,0
5861,128,126,128,125,127,130,126,127,0
5864,126,126,129,134,129,126,127,124,0
5867,127,126,128,125,127,129,128,127,0
5870,129,127,128,124,127,127,128,132,0
5873,128,126,128,126,128,127,125,123,0
5876,127,127,127,122,129,129,127,126,0
5878,125,129,128,122,129,127,127,127,0
5881,129,128,125,123,128,129,127,130,0
5883,129,128,126,136,126,126,127,130,0
5887,128,127,129,138,123,128,130,123,0
5889,126,128,129,137,125,127,127,131,0
5892,127,130,126,124,128,128,127,129,0
5898,128,129,128,124,128,130,127,125,0
5901,127,128,128,126,128,129,126,126,0
5906,125,129,128,126,128,128,127,128,0
5909,128,127,128,126,127,128,127,127,0
5912,128,127,128,128,127,129,128,127,0
5916,127,129,127,122,128,126,126,126,0
5919,127,127,128,131,127,128,127,129,0
5922,129,129,128,132,128,127,127,131,0
5925,129,128,129,128,127,127,126,123,0
5928,127,128,126,129,128,127,128,122,0
5932,127,127,130,138,124,127,127,125,0
5935,129,127,126,120,128,130,129,131,0
5939,129,127,126,125,129,126,126,128,0
5944,126,129,128,129,126,130,128,130,0
5951,126,127,128,122,129,127,127,126,0
5955,128,129,127,128,128,128,126,126,0
5958,128,128,128,128,127,127,127,129,0
5961,128,129,129,137,126,126,129,123,0
5965,126,126,128,134,124,125,130,122,0
5968,127,126,128,122,128,127,128,133,0
5971,129,129,128,123,128,128,127,129,0
5975,126,127,127,126,128,127,127,129,0
5978,127,127,128,126,127,126,128,127,0
5981,128,127,128,123,128,127,127,129,0
5984,129,129,128,124,127,127,126,124,0
5988,128,127,128,124,128,126,127,129,0
5990,126,127,128,127,129,128,128,128,0
5993,128,128,128,126,128,128,129,129,0
5996,129,128,128,130,127,127,128,124,0
5999,126,129,126,125,127,127,128,123,0
6002,126,127,129,136,123,126,129,123,0
6005,127,130,127,123,129,129,127,132,0
6008,127,127,128,122,130,128,126,130,0
6012,128,127,128,124,128,129,128,125,0
6016,127,126,126,122,127,129,128,127,0
6019,128,128,128,127,129,128,128,131,0
6022,129,128,126,127,128,128,127,128,0
6025,128,127,128,125,129,129,128,127,0
6028,127,127,127,126,128,127,128,125,0
6031,127,127,126,125,129,128,128,126,0
6034,129,127,128,126,128,126,127,129,0
6037,128,130,127,125,129,128,128,122,0
6042,126,127,128,124,129,127,127,127,0
6046,127,127,127,124,128,127,128,128,0
6051,129,128,128,125,128,127,127,129,0
6058,126,128,129,138,122,128,130,126,0
6062,126,126,129,135,125,127,129,123,0
6066,126,128,126,127,128,129,128,132,0
6069,129,129,128,119,129,128,125,130,0
6072,129,126,127,124,129,130,127,131,0
6079,128,127,126,125,129,127,127,129,0
6082,126,130,127,125,129,127,127,129,0
6086,129,128,126,127,129,126,127,129,0
6090,126,127,128,130,128,127,127,128,0
6098,127,126,126,130,129,126,126,127,0
6102,125,127,128,128,128,128,128,127,0
6105,128,127,128,124,128,127,128,130,0
6108,128,127,128,136,127,127,126,124,0
6112,127,128,128,136,129,128,127,127,0
6115,127,127,126,126,128,129,129,120,0
6118,128,127,126,128,126,128,127,127,0
6122,128,127,128,134,128,128,127,128,0
6126,127,129,129,138,122,127,130,125,0
6128,126,127,128,133,124,129,127,129,0
6131,129,127,126,122,129,127,128,132,0
6135,129,129,128,119,129,127,126,130,0
6139,128,127,126,124,130,130,127,127,0
6142,127,127,126,120,129,127,127,128,0
6146,128,129,126,123,128,127,127,129,0
6149,128,129,128,127,128,127,127,128,0
6152,127,129,128,126,128,126,127,126,0
6156,126,126,127,130,127,128,129,128,0
6159,128,129,128,126,128,126,128,129,0
6163,129,128,128,129,128,126,128,129,0
6168,125,127,130,137,124,127,128,123,0
6173,126,127,129,137,129,129,127,129,0
6177,128,127,128,124,128,128,127,130,0
6181,128,129,128,124,127,130,127,127,0
6184,127,127,126,125,128,128,127,129,0
6187,126,127,129,131,128,128,128,127,0
6190,128,127,128,125,128,127,129,131,0
6193,129,129,127,131,128,127,128,132,0
6197,127,127,129,135,128,126,126,126,0
6201,126,127,126,129,128,128,128,124,0
6205,127,126,129,128,129,127,127,128,0
6209,129,128,126,123,127,127,127,127,0
6212,127,127,129,137,122,128,130,125,0
6216,126,126,129,135,124,126,129,124,0
6219,127,129,127,122,129,128,127,133,0
6223,129,127,125,121,127,130,128,130,0
6226,128,127,126,129,127,127,125,130,0
6229,126,127,126,126,128,126,127,128,0
6231,126,127,126,122,128,128,127,129,0
6234,129,127,126,126,128,127,126,128,0
6237,128,127,129,128,128,129,127,124,0
6243,127,126,129,138,126,127,127,123,0
6246,127,126,128,125,127,128,128,131,0
6249,129,128,129,122,128,128,126,127,0
6252,128,127,129,138,127,127,127,129,0
6255,127,129,126,128,127,128,128,120,0
6259,127,126,128,129,127,128,129,128,0
6262,128,127,128,130,127,128,129,127,0
6265,128,127,126,130,127,128,128,129,0
6269,127,129,129,138,123,126,131,125,0
6273,126,127,129,137,128,127,127,129,0
6278,129,130,128,123,129,128,128,132,0
6282,129,129,128,129,129,126,126,127,0
6287,127,126,128,123,129,128,126,126,0
6292,127,127,128,127,128,128,127,126,0
6299,129,128,126,135,129,127,127,128,0
6295,129,127,128,128,128,127,129,127,0
6301,127,128,126,132,129,126,126,123,0
6305,127,127,128,125,128,127,128,129,0
6308,129,128,128,125,128,126,127,128,0
6312,128,129,128,136,127,127,127,125,0
6315,125,127,128,137,122,125,130,125,0
6318,127,127,129,134,126,131,128,129,0
6322,129,127,125,122,128,128,126,132,0
6325,127,129,127,124,128,130,126,128,0
6329,127,127,126,124,127,127,127,130,0
6332,126,127,128,126,128,128,127,126,0
6336,129,127,126,126,127,128,129,128,0
6339,128,127,128,122,130,126,127,130,0
6342,128,128,127,124,130,128,126,128,0
6345,127,127,128,138,126,128,127,128,0
6349,128,127,128,127,127,127,128,129,0
6352,127,129,129,138,126,127,128,123,0
6355,127,129,129,134,128,127,128,124,0
6358,127,125,129,138,124,128,129,126,0
6362,128,127,125,121,127,130,127,130,0
6365,128,129,127,122,128,128,126,128,0
6368,128,126,126,120,129,128,128,128,0
6371,127,127,126,126,130,127,127,128,0
6375,127,130,126,124,129,126,127,127,0
6389,130,129,129,127,127,128,127,126,0
6393,127,127,128,135,125,126,131,124,0
6398,126,127,129,135,124,126,129,126,0
6404,128,127,127,122,128,129,128,131,0
6408,129,128,126,123,129,127,127,132,0
6411,126,128,129,126,129,126,127,126,0
6415,126,127,129,130,128,127,127,127,0
6418,128,126,126,126,127,127,129,129,0
6421,128,128,128,126,129,125,126,126,0
6425,128,129,128,130,128,126,128,129,0
6429,126,127,126,127,128,126,127,126,0
6432,128,129,129,128,128,128,127,129,0
6436,128,129,129,129,128,128,127,123,0
6441,128,127,129,140,123,126,129,122,0
6443,125,127,129,138,125,129,129,124,0
6448,127,128,128,118,129,128,127,131,0
6451,129,126,126,124,128,128,127,132,0
6454,127,130,128,129,130,128,127,130,0
6458,128,128,127,126,129,127,127,130,0
6461,126,128,128,129,129,126,128,132,0
6464,129,128,128,128,128,127,127,129,0
6467,126,129,127,126,128,129,129,124,0
6470,126,127,129,140,125,128,129,125,0
6473,127,127,126,123,128,127,127,129,0
6476,129,127,128,126,129,127,126,130,0
6479,128,126,128,128,127,128,127,129,0
6482,127,127,126,124,128,127,127,126,0
6486,127,127,128,127,127,128,128,128,0
6489,129,127,126,124,129,126,126,128,0
6492,128,128,127,125,127,128,126,124,0
6496,125,127,128,135,123,126,131,123,0
6499,127,128,128,136,125,127,127,132,0
6508,130,129,125,124,129,128,127,130,0
6511,129,127,128,126,129,129,127,130,0
6516,127,128,126,127,130,126,128,127,0
6524,127,127,126,126,129,127,127,127,0
6527,127,130,127,127,128,127,127,128,0
6530,128,129,128,137,126,126,126,127,0
6534,127,127,126,129,128,128,127,130,0
6537,126,127,126,125,128,126,127,128,0
6540,129,127,128,125,126,129,128,128,0
6543,128,127,128,128,127,127,128,128,0
6548,127,127,126,127,128,128,127,128,0
6551,127,128,129,125,127,127,129,128,0
6553,128,127,127,128,129,126,128,129,0
6556,128,129,129,126,129,127,128,125,0
6562,128,125,129,134,122,128,130,123,0
6565,126,127,129,131,123,129,128,131,0
6568,129,126,128,122,128,131,127,129,0
6571,129,126,125,122,129,127,127,129,0
6574,127,126,127,120,129,127,126,124,0
6579,125,126,127,124,128,128,127,131,0
6583,127,130,125,121,128,127,127,130,0
6586,129,127,128,126,127,130,127,126,0
6589,127,127,126,125,129,129,127,127,0
6591,126,127,128,128,128,128,127,128,0
6594,128,127,126,125,126,127,127,127,0
6597,128,127,128,131,127,130,128,125,0
6600,125,127,129,135,126,126,126,122,0
6603,125,127,129,134,127,128,128,132,0
6606,129,127,126,123,129,127,127,130,0
6609,128,127,126,123,128,127,128,132,0
6614,127,127,128,130,129,127,126,125,0
6618,127,127,128,125,127,130,128,128,0
6621,128,128,128,124,129,126,128,130,0
6625,129,127,128,128,128,128,128,125,0
6629,127,127,127,126,128,127,128,122,0
6633,126,127,130,139,124,129,129,125,0
6638,128,127,129,125,129,127,127,130,0
6642,128,127,128,125,127,130,128,129,0
6651,127,127,126,120,129,127,127,127,0
6655,127,126,126,122,129,128,125,125,0
6659,128,128,128,126,127,129,128,130,0
6662,129,129,126,123,128,130,128,128,0
6665,127,127,129,126,129,127,125,128,0
6668,127,127,128,122,128,127,128,122,0
6672,127,127,128,127,129,128,128,129,0
6675,129,128,128,130,126,126,129,129,0
6684,127,129,129,135,125,126,130,125,0
6689,126,126,129,137,123,126,129,122,0
6693,126,126,126,121,129,127,128,132,0
6697,128,127,127,123,128,131,128,130,0
6700,128,129,127,122,129,128,127,126,0
6703,127,126,128,124,128,129,127,128,0
6707,127,127,128,124,129,127,127,130,0
6710,129,128,128,126,127,129,128,130,0
6713,128,129,128,128,128,125,125,126,0
6717,127,128,128,132,129,128,127,128,0
6728,127,127,126,129,129,125,126,127,0
6732,129,129,126,126,127,128,128,129,0
6736,128,128,128,131,127,127,127,131,0
6742,127,127,129,136,125,127,129,122,0
6745,126,127,129,134,129,127,128,130,0
6750,128,127,126,121,128,128,127,132,0
6753,129,127,126,121,129,127,126,126,0
6756,127,129,127,127,129,126,126,126,0
6761,127,126,128,124,127,128,128,128,0
6767,129,127,128,128,129,126,127,129,0
6773,128,127,129,129,127,128,128,123,0
6776,127,126,129,131,128,127,127,126,0
6780,126,127,128,130,127,129,129,126,0
6783,128,127,128,126,127,128,127,125,0
6786,128,127,129,137,128,127,126,128,0
6790,127,128,128,126,126,127,130,125,0
6793,126,126,128,136,124,127,129,125,0
6797,129,127,128,123,127,130,127,132,0
6800,129,127,125,125,128,130,127,131,0
6804,127,129,128,127,129,127,126,125,0
6809,126,127,128,126,128,129,128,128,0
6813,128,126,126,125,127,130,128,129,0
6816,129,128,126,123,129,128,125,125,0
6821,127,129,128,122,128,127,127,125,0
6824,125,127,128,134,128,127,127,129,0
6828,128,127,128,123,128,128,128,129,0
6831,128,128,128,132,127,128,127,130,0
6835,128,127,129,137,125,127,130,123,0
6838,127,126,129,136,125,128,129,122,0
6845,129,129,126,120,129,128,128,131,0
6849,129,127,126,122,128,130,128,132,0
6852,127,127,126,135,126,126,127,131,0
6859,126,129,127,119,129,129,128,127,0
6863,129,129,128,123,128,128,127,131,0
6866,129,128,127,124,128,128,127,126,0
6869,127,127,126,124,129,127,126,125,0
6873,124,128,129,121,129,126,127,129,0
6876,129,128,128,123,129,126,128,128,0
6879,129,129,127,131,127,127,127,128,0
6883,128,128,129,134,125,126,129,122,0
6887,127,126,129,135,125,130,128,124,0
6893,128,128,127,123,128,128,128,131,0
6896,129,128,126,121,128,128,127,127,0
6900,127,127,129,137,126,128,128,124,0
6903,124,127,128,125,129,126,126,125,0
6907,128,127,126,123,127,128,128,130,0
6910,129,128,128,123,129,128,127,131,0
6914,128,130,129,129,127,126,126,122,0
6917,125,127,126,125,128,127,128,131,0
6920,127,128,128,122,128,127,128,130,0
6923,129,127,129,127,128,128,127,123,0
6932,127,130,129,133,130,126,126,128,0
6936,127,128,129,129,129,127,126,125,0
6940,127,127,127,123,127,127,127,128,0
6943,129,127,126,129,128,127,127,128,0
6947,128,127,127,126,124,126,130,126,0
6950,126,127,128,135,124,127,130,123,0
6953,127,127,128,124,128,128,126,128,0
6956,129,126,128,125,128,128,127,130,0
6960,128,127,126,123,128,127,128,129,0
6963,126,128,127,127,129,127,126,125,0
6966,127,127,129,126,127,128,129,130,0
6970,129,130,127,129,127,126,127,130,0
6973,129,130,127,128,129,125,127,131,0
6976,127,127,128,123,128,129,126,124,0
6981,127,128,126,129,128,128,127,128,0
6984,129,127,128,132,127,129,128,129,0
6988,128,128,129,133,127,127,128,124,0
6991,127,126,128,136,127,127,126,126,0
6995,127,128,128,126,128,127,127,127,0
7007,128,127,128,124,127,129,128,128,0
7012,128,127,128,129,128,126,127,130,0
7018,127,129,129,135,125,127,130,125,0
7023,126,126,128,135,123,127,129,128,0
7026,129,127,127,121,128,128,128,130,0
7029,129,127,128,120,128,128,127,130,0
7032,127,127,126,130,128,130,126,126,0
7036,126,126,126,122,128,130,128,129,0
7045,128,128,128,124,128,127,128,131,0
7050,129,130,126,128,129,128,126,125,0
7053,125,128,129,135,128,128,125,122,0
7056,127,127,128,121,127,131,128,132,0
7059,129,128,128,127,128,127,127,132,0
7063,129,129,128,128,127,129,128,124,0
7066,127,127,126,125,127,129,127,129,0
7069,127,126,128,128,128,126,128,131,0
7073,129,128,128,127,128,127,127,131,0
7076,128,127,126,125,128,130,127,125,0
7122,125,128,129,135,122,127,130,125,0
7129,126,126,129,135,125,126,127,129,0
7134,126,128,128,127,129,128,127,129,0
7138,128,129,128,123,128,131,128,131,0
7141,128,127,128,124,128,129,127,127,0
7145,127,127,126,128,127,129,129,126,0
7194,128,127,126,126,128,129,129,128,0
7205,129,127,126,125,127,129,129,127,0
7211,128,128,128,138,127,128,128,124,0
7217,127,127,129,135,127,127,127,128,0
7223,128,128,128,128,128,129,129,128,0
7256,129,127,128,124,128,127,128,131,0
7262,127,127,128,131,128,128,128,122,0
7267,126,127,129,128,128,126,127,128,0
7328,128,128,129,127,128,127,128,130,0
7337,129,128,126,132,126,129,128,127,0
7355,127,129,129,134,128,128,130,127,0
7361,126,126,129,134,123,126,130,124,0
7367,126,127,126,121,128,128,127,132,0
7372,127,128,127,123,129,128,127,133,0
7377,126,127,127,126,130,127,126,128,0
7381,127,128,128,123,129,128,128,126,0
7385,128,127,126,124,127,127,129,127,0
7388,128,127,128,123,128,126,128,131,0
7391,128,129,128,128,128,127,128,126,0
7395,127,127,127,138,126,128,127,125,0
7398,127,127,128,126,129,126,126,127,0
7401,129,129,127,128,127,128,128,127,0
7405,128,127,126,127,128,128,127,130,0
7408,127,129,129,140,124,126,129,123,0
7411,127,127,129,127,129,127,127,129,0
7415,129,127,125,122,128,127,126,130,0
7418,128,127,128,126,127,127,127,124,0
7421,126,128,129,133,127,127,126,129,0
7425,128,127,126,123,128,128,128,130,0
7428,130,128,128,121,128,127,126,126,0
7432,128,129,126,125,128,127,128,125,0
7435,127,127,129,138,124,127,129,123,0
7462,126,127,129,130,128,130,128,130,0
7470,128,127,126,122,129,127,127,132,0
7478,129,129,128,125,128,127,127,129,0
7485,126,127,126,125,127,128,127,128,0
7488,127,126,128,126,127,128,128,126,0
7530,128,127,128,127,128,128,128,129,0
7540,128,127,128,130,128,126,126,130,0
7546,127,127,128,136,126,126,129,122,0
7551,126,127,129,136,124,129,128,129,0
7556,128,126,125,123,128,128,128,132,0
7559,129,127,127,124,128,130,127,129,0
7563,127,128,128,120,129,127,125,125,0
7566,125,127,128,135,129,127,127,127,0
7569,128,127,126,125,127,128,128,124,0
7573,129,129,128,127,128,128,126,127,0
7576,127,129,128,132,128,129,127,121,0
7579,124,127,129,126,127,127,127,131,0
7582,129,129,128,121,129,127,127,126,0
7585,128,128,128,128,126,127,127,130,0
7589,127,128,128,125,129,126,127,123,0
7592,126,127,127,127,127,128,127,129,0
7595,129,129,129,126,127,127,127,130,0
7599,128,127,128,128,127,130,127,125,0
7602,127,127,127,135,123,126,129,124,0
7606,126,126,129,133,126,130,127,130,0
7609,129,126,125,121,128,129,128,130,0
7612,128,128,128,124,129,127,127,132,0
7615,126,129,128,125,130,127,126,127,0
7618,127,129,128,123,128,126,127,129,0
7621,127,128,129,131,128,127,127,129,0
7626,127,128,126,127,128,126,126,127,0
7631,128,127,128,130,128,127,126,123,0
7636,127,127,128,128,129,126,127,128,0
7642,128,129,128,131,128,127,127,126,0
7652,129,127,128,129,127,128,128,130,0
7655,128,128,126,121,127,127,126,129,0
7659,125,128,129,138,124,128,129,123,0
7662,128,127,126,121,129,128,127,130,0
7665,129,127,125,124,128,128,129,126,0
7669,128,127,128,126,128,130,128,121,0
7672,126,127,128,125,129,126,127,127,0
7675,128,126,127,124,128,128,128,130,0
7679,129,127,126,127,128,126,127,128,0
7682,126,127,126,124,128,127,127,131,0
7685,126,126,126,127,129,126,127,128,0
7688,128,127,126,123,126,129,128,124,0
7691,128,127,127,126,127,128,128,128,0
7694,128,128,128,124,128,128,127,124,0
7696,125,125,128,137,122,127,130,125,0
7699,127,127,129,134,128,130,128,129,0
7702,129,127,127,123,128,128,127,131,0
7705,128,129,126,119,130,127,126,130,0
7708,126,127,128,128,129,126,126,129,0
7711,126,126,128,126,127,127,127,125,0
7715,129,127,126,125,128,128,128,129,0
7731,129,128,128,129,127,128,128,125,0
7735,127,127,129,125,128,128,127,126,0
7740,127,127,128,131,128,126,127,126,0
7744,128,127,129,127,128,126,128,131,0
7748,129,127,128,123,128,126,126,127,0
7752,127,127,129,133,126,127,129,123,0
7755,126,126,129,136,124,127,128,128,0
7759,129,126,128,121,128,128,127,132,0
7766,127,130,128,127,127,127,128,125,0
7798,127,127,126,119,129,127,125,127,0
7804,127,127,128,127,128,126,127,128,0
7810,129,127,126,123,128,129,128,130,0
7816,129,130,128,127,128,127,126,126,0
7821,127,127,128,125,125,127,128,122,0
7868,127,127,129,137,124,126,130,125,0
7879,129,128,126,123,129,128,126,132,0
7887,127,128,128,125,127,130,128,128,0
7895,127,127,126,133,126,126,128,127,0
7902,126,126,127,124,128,127,127,129,0
7907,129,127,127,127,127,128,128,130,0
7911,129,128,127,130,127,128,128,129,0
7915,128,128,126,128,129,126,128,126,0
7918,127,127,128,129,127,127,127,123,0
7921,129,127,126,124,128,129,128,130,0
7925,129,129,128,127,128,127,128,125,0
7928,128,127,129,135,127,129,129,122,0
7932,126,127,129,138,124,130,129,122,0
7935,129,127,126,120,129,127,127,132,0
7939,130,129,128,123,129,128,126,130,0
7942,126,128,126,123,129,127,126,130,0
7945,127,128,126,132,129,127,127,123,0
7951,129,129,126,126,128,127,127,127,0
7957,128,127,128,127,128,128,128,128,0
7962,127,129,126,125,128,127,128,127,0
7968,126,127,128,135,121,126,130,123,0
7971,127,127,126,124,128,129,128,131,0
7975,129,129,128,124,129,128,126,131,0
7980,128,126,128,128,128,128,127,125,0
7984,127,126,126,126,127,130,128,127,0
7988,127,127,128,127,127,128,127,129,0
7991,129,127,128,127,128,128,128,130,0
7994,128,128,129,132,129,127,126,125,0
7997,125,127,128,124,128,128,128,130,0
8001,128,128,128,121,129,126,129,124,0
8004,129,127,128,128,127,130,128,129,0
8007,128,127,127,123,126,127,129,124,0
8011,126,127,129,138,126,127,129,123,0
8015,127,127,128,122,127,128,128,132,0
8018,129,127,126,122,130,127,127,132,0
8022,129,127,128,124,128,130,127,123,0
8025,127,126,128,121,127,126,128,124,0
8028,127,126,128,126,128,129,128,128,0
8031,129,127,125,127,127,129,128,128,0
8034,129,128,128,124,127,130,127,129,0
8037,127,127,128,124,126,126,126,122,0
8041,126,127,126,125,129,126,129,127,0
8044,128,128,128,127,128,127,128,131,0
8047,129,128,126,134,128,128,127,131,0
8050,127,127,129,136,123,126,129,124,0
8054,126,128,129,136,128,128,127,131,0
8057,129,127,127,121,128,128,127,130,0
8060,128,126,127,122,129,130,127,129,0
8064,126,129,128,129,130,126,128,129,0
8067,126,127,128,124,128,126,129,128,0
8069,129,128,128,126,129,128,126,127,0
8072,128,129,127,124,129,126,126,129,0
8076,127,126,128,127,127,126,126,127,0
8080,127,127,128,123,127,127,127,125,0
8086,129,126,126,127,128,128,128,129,0
8090,129,130,128,127,128,126,127,130,0
8093,127,126,128,127,128,127,126,124,0
8096,125,127,128,123,127,128,128,128,0
8100,129,127,128,127,128,127,127,128,0
8103,128,129,126,126,128,127,128,123,0
8106,127,127,129,137,121,127,130,125,0
8109,127,127,128,134,126,127,127,132,0
8112,129,129,126,119,128,128,127,130,0
8115,129,127,128,124,130,127,126,129,0
8119,127,128,127,126,130,130,127,125,0
8121,126,126,126,126,128,127,127,128,0
8125,128,126,127,130,127,128,128,129,0
8127,129,127,128,127,127,128,128,129,0
8130,125,127,129,133,128,130,127,126,0
8134,127,127,126,127,128,127,128,128,0
8137,128,128,128,123,127,128,129,125,0
8140,129,127,128,128,127,130,127,129,0
8143,127,127,129,133,129,128,127,128,0
8146,126,126,128,128,129,127,128,128,0
8150,128,130,129,128,128,127,127,128,0
8155,128,130,128,125,128,127,128,124,0
8158,128,127,128,131,129,126,128,124,0
8161,126,127,129,136,125,127,130,124,0
8166,128,127,129,136,127,128,128,130,0
8170,129,127,127,122,127,128,128,127,0
8173,128,127,128,122,128,128,127,132,0
8177,127,127,126,125,127,128,128,130,0
8181,128,127,128,122,127,128,128,131,0
8187,128,128,128,123,129,127,128,129,0
8192,128,129,128,136,126,127,129,125,0
8196,127,127,129,136,126,126,129,124,0
8200,128,128,128,123,128,129,127,130,0
8203,129,127,126,121,128,128,127,131,0
8206,128,128,126,127,129,127,128,130,0
8209,127,127,128,122,128,129,128,126,0
8213,127,127,127,128,127,129,129,128,0
8220,129,128,128,130,127,128,128,132,0
8224,129,130,126,128,127,126,128,123,0
8227,127,127,128,131,130,126,128,121,0
8230,127,127,126,124,127,128,128,130,0
8234,128,127,128,130,127,127,128,124,0
8237,128,128,128,128,129,127,126,124,0
8241,125,127,128,137,122,127,130,124,0
8244,127,127,128,135,127,127,127,130,0
8247,127,128,126,125,128,131,128,132,0
8256,128,127,125,124,129,126,128,130,0
8260,126,127,129,133,129,130,128,125,0
8265,127,126,127,125,127,129,129,127,0
8269,128,128,127,123,128,128,127,130,0
8277,128,127,128,125,130,126,126,130,0
8283,127,129,129,126,128,127,127,123,0
8287,127,129,129,123,128,128,128,126,0
8291,129,129,128,127,128,127,127,130,0
8294,129,128,129,134,128,126,125,122,0
8298,128,127,127,124,128,126,127,128,0
8302,126,127,128,131,128,128,129,127,0
8305,129,128,127,126,127,129,128,131,0
8309,128,129,129,137,124,129,129,125,0
8313,127,127,130,136,125,127,128,123,0
8316,127,127,129,134,126,130,128,130,0
8321,128,127,125,122,129,128,127,130,0
8326,128,127,128,121,128,130,127,129,0
8331,127,127,126,124,129,127,128,129,0
8336,127,127,128,122,128,127,127,124,0
8339,128,127,128,130,128,129,127,127,0
8342,128,129,128,130,128,127,126,125,0
8346,127,126,128,134,129,127,125,122,0
8349,127,129,127,121,129,128,129,123,0
8352,128,127,126,124,127,127,128,131,0
8355,129,128,127,124,129,127,126,125,0
8358,127,127,129,129,129,127,126,126,0
8361,124,128,129,137,124,129,129,124,0
8364,128,128,128,123,129,127,127,129,0
8368,129,129,128,126,128,126,126,127,0
8371,128,129,126,131,129,127,127,128,0
8373,125,127,128,128,129,126,127,129,0
8377,129,129,128,130,129,126,127,131,0
8380,128,127,126,124,128,128,127,130,0
8383,127,126,129,136,122,127,129,125,0
8386,126,127,129,133,127,130,128,132,0
8389,129,129,128,125,129,129,129,132,0
8392,127,130,126,121,128,130,127,131,0
8396,128,127,126,125,129,126,126,129,0
8401,125,129,128,127,129,126,126,129,0
8404,128,128,126,126,128,127,126,127,0
8408,128,127,126,125,128,128,128,126,0
8411,127,127,126,127,128,130,127,127,0
8414,124,127,129,139,123,127,129,126,0
8417,127,126,127,122,128,128,128,130,0
8420,129,127,127,125,129,126,127,129,0
8422,127,127,129,129,128,125,127,130,0
8426,126,127,128,126,128,126,127,125,0
8430,126,129,126,125,127,128,128,126,0
8438,129,127,128,127,128,127,127,131,0
8441,126,128,127,130,126,126,126,122,0
8444,125,127,129,139,125,130,129,124,0
8447,127,127,128,119,128,127,127,132,0
8450,129,127,126,122,129,127,126,130,0
8453,129,128,128,126,129,128,126,127,0
8456,126,129,129,122,128,127,127,129,0
8459,125,128,128,125,128,128,128,125,0
8462,129,127,126,126,127,129,127,129,0
8466,128,128,129,136,126,127,127,125,0
8470,127,126,129,135,125,126,129,124,0
8473,127,127,126,121,129,128,127,132,0
8477,129,128,128,121,128,129,126,132,0
8482,128,127,125,123,128,128,126,130,0
8486,126,127,128,123,129,128,126,127,0
8488,127,126,126,123,128,129,129,130,0
8491,129,129,127,124,129,126,127,127,0
8494,128,127,126,126,128,130,128,122,0
8497,127,127,127,131,124,126,128,123,0
8499,126,128,129,135,128,128,127,129,0
8503,128,127,127,126,128,128,127,129,0
8506,128,127,126,125,128,130,128,128,0
8510,127,128,127,121,128,128,128,127,0
8513,127,129,127,129,129,126,128,127,0
8515,128,127,128,124,128,127,127,129,0
8519,128,127,129,128,126,128,128,127,0
8522,127,127,128,127,129,127,127,125,0
8525,126,127,128,137,127,127,128,129,0
8529,128,128,127,128,127,128,129,126,0
8533,129,127,126,127,127,128,127,124,0
8537,125,126,128,137,122,126,130,123,0
8542,126,127,128,134,123,126,128,131,0
8546,128,128,125,122,128,130,128,130,0
8556,128,128,125,122,130,129,127,131,0
8562,128,126,126,121,129,127,126,126,0
8566,124,125,128,127,127,127,128,127,0
8569,129,126,126,125,128,128,128,132,0
8573,128,128,128,129,129,127,126,127,0
8576,127,127,128,129,127,128,127,127,0
8578,126,127,128,125,127,127,128,126,0
8581,128,128,128,127,127,127,129,131,0
8585,129,128,127,131,128,126,127,124,0
8588,127,128,129,132,130,126,128,120,0
8591,124,127,130,139,124,129,129,124,0
8596,127,129,126,123,129,127,127,130,0
8599,129,127,127,123,129,127,127,131,0
8602,128,130,128,134,129,126,127,130,0
8606,127,128,129,124,129,127,127,128,0
8609,128,129,127,127,129,128,127,129,0
8612,128,128,128,126,126,127,127,129,0
8616,126,128,128,123,126,128,129,124,0
8619,126,127,128,135,123,126,130,123,0
8622,127,127,128,122,128,128,128,131,0
8626,129,127,128,124,128,130,128,124,0
8629,128,127,128,119,129,130,126,131,0
8632,127,129,129,122,129,127,126,127,0
8635,128,127,128,123,127,128,127,128,0
8638,128,129,128,123,128,128,128,128,0
8641,128,128,128,131,127,128,127,126,0
8644,127,127,127,129,129,127,128,129,0
8647,127,127,126,127,126,128,129,125,0
8650,128,127,127,127,127,126,128,127,0
8654,129,128,128,129,128,127,127,127,0
8659,126,126,126,124,129,127,127,127,0
8662,127,129,129,129,128,126,127,127,0
8667,128,129,129,123,127,128,127,129,0
8670,128,129,128,131,126,127,130,126,0
8673,127,127,127,135,125,127,130,123,0
8676,127,127,128,134,127,131,128,128,0
8678,129,127,125,122,128,129,127,132,0
8681,129,126,128,122,128,130,127,129,0
8685,126,126,128,124,130,130,128,126,0
8688,127,126,128,121,129,128,127,129,0
8690,129,129,128,124,128,128,128,129,0
8693,128,127,128,130,127,129,128,122,0
8702,125,127,127,126,129,126,126,129,0
8706,127,129,126,126,126,127,127,128,0
8712,129,127,128,125,127,128,128,131,0
8716,128,128,128,127,129,126,126,124,0
8718,128,127,128,137,128,126,127,128,0
8721,127,128,128,124,128,127,127,128,0
8725,129,128,126,127,128,128,127,126,0
8728,128,128,126,128,128,128,128,127,0
8733,126,128,128,134,129,127,127,128,0
8736,127,127,128,131,129,127,128,129,0
8740,128,127,127,130,127,128,128,127,0
8743,128,127,127,129,128,128,127,124,0
8746,127,126,128,135,123,128,130,125,0
8749,126,127,128,133,125,128,128,129,0
8752,126,127,128,123,128,128,127,130,0
8756,128,128,127,126,128,130,127,132,0
8759,127,128,128,126,130,126,127,129,0
8765,126,129,128,122,128,127,127,129,0
8769,129,128,129,124,128,128,128,130,0
8772,128,128,127,127,129,127,126,128,0
8775,125,127,126,124,128,129,128,125,0
8777,126,127,128,134,126,128,127,126,0
8780,128,127,127,130,126,128,128,129,0
8783,128,127,128,133,127,126,130,123,0
8786,127,127,129,134,122,126,129,124,0
8789,126,127,128,123,130,131,128,129,0
8792,128,127,127,121,128,128,127,130,0
8796,129,127,128,129,128,130,127,129,0
8800,128,127,127,125,128,130,127,129,0
8804,127,127,128,124,128,127,127,127,0
8807,128,128,128,122,127,128,128,128,0
8810,129,129,129,125,128,127,128,130,0
8813,126,128,126,128,129,128,127,124,0
8817,126,126,128,128,129,126,126,127,0
8821,128,127,126,125,127,128,129,127,0
8824,128,128,128,131,127,126,128,129,0
8828,128,129,127,136,127,129,129,123,0
8831,127,127,130,140,125,128,130,124,0
8834,127,129,127,123,128,127,129,128,0
8837,129,128,127,121,129,128,127,132,0
8840,128,128,126,129,130,127,126,128,0
8843,125,127,126,127,128,127,127,129,0
8846,127,127,128,126,127,129,128,127,0
8849,129,127,128,127,127,128,128,123,0
8858,127,128,127,123,127,127,127,122,0
8862,124,127,129,138,125,127,129,123,0
8867,128,127,128,125,129,127,127,128,0
8870,128,129,128,124,127,128,128,130,0
8876,129,128,126,128,129,126,128,128,0
8881,126,127,126,129,128,130,128,125,0
8885,127,127,128,121,128,127,127,131,0
8888,129,130,128,123,127,128,127,133,0
8891,129,130,128,136,124,127,129,127,0
8894,126,127,129,133,124,127,129,123,0
8898,127,127,128,126,129,128,127,131,0
8901,129,127,125,123,129,127,128,128,0
8904,129,129,128,123,129,127,126,128,0
8908,127,126,128,126,127,128,126,126,0
8911,127,126,126,120,128,127,128,130,0
8914,129,127,127,126,128,128,128,131,0
8917,128,129,129,127,129,127,126,128,0
8921,126,127,126,121,129,127,127,127,0
8925,127,127,128,126,129,126,127,127,0
8929,128,128,127,130,128,127,128,124,0
8932,128,127,129,130,128,126,127,127,0
8935,126,129,127,125,127,127,127,125,0
8938,126,127,129,133,124,130,129,122,0
8941,128,130,126,124,129,128,127,129,0
8945,128,128,129,130,129,126,128,123,0
8948,126,127,126,121,128,127,128,124,0
8951,126,127,129,135,123,127,129,124,0
8954,128,127,125,120,127,130,128,134,0
8958,128,126,126,121,129,128,127,127,0
8961,127,126,128,123,128,130,127,122,0
8964,127,127,129,127,128,127,128,131,0
8968,129,130,128,125,128,127,127,128,0
8972,129,128,128,126,128,126,125,128,0
8976,126,127,128,127,130,126,126,122,0
8980,126,127,129,134,121,127,129,127,0
8986,129,128,126,119,129,128,128,129,0
8990,129,129,128,122,128,131,128,126,0
8993,128,127,128,125,128,127,126,125,0
8996,127,127,126,127,128,128,127,128,0
9000,128,128,128,129,128,126,127,128,0
9003,128,127,129,138,127,127,128,126,0
9006,127,129,128,121,128,128,127,126,0
9010,126,127,129,138,126,127,129,122,0
9013,128,127,127,121,129,128,128,131,0
9016,129,127,126,119,129,127,127,129,0
9019,128,127,128,126,126,126,126,121,0
9023,127,129,128,124,128,128,127,129,0
9027,128,129,128,126,127,128,128,130,0
9030,129,127,126,121,128,127,128,130,0
9035,128,127,130,139,124,127,129,124,0
9038,127,127,129,135,124,126,129,122,0
9042,127,129,125,121,128,131,127,130,0
9045,129,126,128,125,128,128,127,129,0
9048,128,127,126,128,128,130,127,126,0
9051,126,126,128,122,127,128,127,127,0
9057,128,126,126,122,126,128,129,130,0
9061,129,127,126,120,129,127,127,130,0
9064,129,130,129,129,128,127,128,124,0
9068,126,126,129,137,128,126,127,127,0
9071,128,127,127,131,128,128,128,128,0
9075,129,128,127,123,128,125,127,129,0
9078,128,128,128,135,129,127,127,126,0
9082,127,127,129,132,129,127,127,127,0
9087,126,127,128,128,127,128,127,126,0
9094,128,127,127,125,127,127,126,127,0
9100,128,128,126,137,123,126,130,126,0
9104,126,126,128,135,124,127,130,123,0
9108,126,127,129,133,128,130,127,131,0
9112,129,129,127,124,128,130,127,130,0
9115,128,128,127,124,129,130,127,128,0
9118,127,127,126,122,129,126,126,126,0
9121,127,128,128,126,128,128,127,127,0
9125,129,127,126,123,127,130,127,129,0
9128,128,127,126,124,129,126,127,131,0
9131,125,128,126,131,130,125,126,125,0
9133,127,129,129,129,128,127,127,127,0
9137,129,127,128,128,127,127,128,130,0
9140,128,128,128,131,129,126,127,129,0
9146,127,127,128,135,129,128,126,126,0
9149,127,127,127,124,128,128,128,124,0
9153,128,127,128,128,128,128,128,128,0
9161,127,127,129,136,129,127,127,128,0
9165,127,127,128,135,122,126,131,122,0
9169,126,127,127,138,124,127,128,130,0
9173,129,127,127,127,130,128,127,130,0
9177,128,127,125,120,128,129,128,130,0
9181,128,130,126,123,128,127,126,126,0
9184,127,129,128,122,128,129,128,130,0
9187,129,128,128,123,128,126,128,132,0
9192,128,130,126,126,129,128,127,129,0
9197,127,127,128,139,123,128,129,123,0
9201,126,128,129,127,128,128,128,127,0
9205,128,126,125,123,128,126,129,131,0
9209,129,128,128,128,128,126,128,132,0
9213,127,128,127,129,128,126,126,126,0
9220,127,128,126,127,128,126,126,128,0
9226,129,128,127,121,128,128,128,129,0
9230,128,127,128,123,129,128,129,125,0
9233,128,128,129,137,123,127,129,123,0
9235,126,127,128,132,128,127,128,128,0
9239,128,127,126,122,128,128,128,132,0
9241,129,128,125,124,129,127,126,129,0
9245,128,129,128,126,128,127,126,127,0
9248,126,126,127,125,128,127,127,127,0
9251,128,128,128,129,128,127,128,131,0
9255,129,129,128,128,129,128,126,128,0
9258,128,128,126,126,129,128,127,125,0
9261,126,127,128,129,128,128,127,127,0
9265,127,127,128,127,128,127,129,128,0
9271,128,127,127,129,127,127,126,128,0
9275,128,128,129,128,129,127,126,129,0
9277,127,128,127,123,129,127,126,127,0
9280,127,128,128,131,128,128,128,126,0
9283,128,127,128,122,128,129,127,129,0
9286,128,127,127,133,129,127,126,130,0
9288,127,128,128,136,121,127,130,126,0
9291,127,127,128,136,125,127,127,132,0
9295,129,127,126,124,129,128,126,131,0
9299,127,129,128,126,128,127,126,130,0
9302,127,127,126,129,130,127,127,128,0
9311,128,128,127,126,129,126,127,129,0
9315,129,130,126,124,128,128,127,127,0
9318,128,127,127,127,128,128,128,129,0
9323,127,127,128,127,129,128,127,123,0
9327,127,126,128,130,126,128,127,126,0
9332,128,127,126,126,128,129,129,130,0
9338,127,127,129,130,126,127,129,124,0
9341,126,127,128,136,123,127,130,123,0
9344,126,127,128,125,129,130,129,130,0
9347,129,127,128,125,129,127,128,131,0
9350,128,128,128,122,128,128,126,129,0
9354,127,127,125,126,128,129,127,127,0
9357,127,129,128,125,128,128,128,121,0
9360,129,127,126,124,128,128,127,129,0
9364,128,127,126,125,128,126,126,126,0
9366,127,127,128,138,128,128,128,122,0
9369,127,128,129,137,128,127,127,128,0
9372,129,128,127,125,128,127,127,130,0
9374,128,127,126,127,128,126,126,129,0
9377,127,128,126,128,127,129,128,127,0
9380,127,127,127,123,128,127,127,129,0
9382,128,127,126,132,127,126,128,129,0
9386,128,129,126,126,128,127,126,126,0
9389,127,126,129,138,124,129,128,123,0
9392,126,127,129,137,124,126,128,129,0
9397,129,128,126,122,128,128,128,130,0
9400,128,127,128,127,127,130,128,129,0
9403,128,129,129,134,126,127,128,127,0
9406,127,127,128,121,129,127,127,129,0
9409,129,127,126,126,128,129,128,128,0
9412,129,127,128,126,128,128,127,128,0
9415,127,128,127,134,128,127,129,122,0
9418,126,127,130,137,125,129,129,123,0
9421,128,127,128,120,129,127,128,133,0
9431,129,127,128,121,129,126,127,130,0
9435,126,127,126,125,129,126,126,127,0
9438,126,126,128,130,129,128,129,123,0
9441,128,127,128,123,128,127,127,129,0
9444,127,128,127,124,127,126,128,131,0
9447,127,127,128,122,129,127,127,128,0
9449,126,127,126,120,128,129,127,127,0
9452,128,128,128,126,128,127,127,125,0
9455,128,129,129,128,126,126,127,127,0
9462,128,127,126,124,128,127,126,124,0
9470,126,125,128,136,122,126,130,123,0
9473,127,128,129,128,129,128,127,129,0
9476,129,127,128,121,127,130,128,130,0
9479,127,127,126,122,129,127,125,128,0
9483,127,126,128,128,129,128,126,125,0
9486,128,126,126,121,127,130,129,127,0
9490,129,127,126,121,128,128,127,131,0
9494,128,127,128,130,127,125,126,127,0
9497,127,127,128,124,129,126,128,123,0
9501,127,126,126,126,126,128,129,128,0
9504,129,127,127,127,127,127,129,128,0
9507,128,128,127,138,128,126,126,128,0
9510,127,127,126,126,125,127,130,125,0
9513,126,128,129,138,125,129,127,131,0
9517,129,127,126,122,129,128,126,130,0
9520,128,126,126,127,128,130,127,132,0
9524,127,129,127,132,128,129,127,129,0
9527,127,129,128,124,127,128,127,129,0
9530,128,126,128,124,128,127,128,131,0
9533,128,128,128,128,127,125,127,128,0
9539,127,128,129,139,125,125,128,122,0
9542,127,126,129,122,128,128,127,129,0
9547,129,126,126,125,128,128,127,130,0
9552,128,126,126,124,128,129,128,127,0
9557,127,126,128,123,128,129,126,127,0
9561,127,126,128,127,127,128,127,129,0
9565,128,126,128,129,128,128,127,130,0
9568,128,127,126,129,128,126,128,126,0
9571,127,128,127,128,128,127,128,121,0
9574,127,128,129,138,125,130,129,122,0
9578,129,128,126,119,129,127,127,132,0
9581,127,128,126,122,130,128,126,126,0
9584,125,128,126,119,129,127,126,127,0
9587,127,128,126,128,129,127,126,127,0
9590,128,127,128,128,127,128,128,128,0
9594,129,128,126,126,126,126,127,130,0
9599,127,128,128,140,124,129,129,120,0
9602,126,127,129,138,123,129,129,126,0
9606,128,127,127,122,128,128,127,128,0
9609,128,127,128,120,128,130,127,130,0
9612,127,127,126,119,129,128,126,125,0
9616,125,127,128,134,127,129,128,128,0
9619,129,128,128,122,129,127,127,128,0
9622,128,128,128,127,127,128,128,125,0
9625,127,127,129,136,125,126,129,122,0
9628,126,127,129,134,129,129,127,131,0
9631,129,129,128,122,127,128,128,130,0
9634,128,127,126,124,129,126,127,131,0
9637,126,128,128,130,129,127,126,128,0
9639,127,127,128,125,127,128,127,129,0
9642,128,127,127,124,127,129,128,129,0
9646,129,128,128,123,128,126,127,130,0
9650,128,128,127,128,127,126,127,127,0
9654,126,128,128,125,126,126,127,125,0
9657,128,127,127,127,126,129,128,129,0
9660,129,127,128,128,126,128,127,124,0
9664,127,129,128,133,129,127,127,127,0
9667,125,128,129,135,124,128,130,124,0
9670,127,127,128,137,128,128,128,133,0
9672,127,128,126,124,128,128,126,128,0
9676,128,128,128,136,128,128,127,128,0
9680,127,126,125,123,129,127,127,130,0
9683,128,129,128,126,128,128,128,129,0
9686,129,127,128,124,128,128,128,130,0
9689,128,128,126,127,129,128,127,129,0
9693,127,127,127,122,128,130,127,125,0
9696,125,128,128,122,128,128,128,130,0
9698,128,128,128,129,128,127,128,127,0
9701,128,128,127,128,127,126,126,124,0
9704,127,126,129,136,123,127,130,124,0
9707,127,128,129,133,127,130,127,129,0
9711,129,127,125,122,128,130,128,132,0
9714,127,130,126,127,128,126,127,132,0
9717,126,126,128,126,127,130,128,124,0
9720,127,127,128,127,127,127,127,127,0
9723,129,129,128,130,128,128,127,130,0
9726,128,127,128,124,127,129,128,125,0
9729,124,127,129,137,126,126,127,128,0
9732,126,127,127,121,128,128,128,132,0
9735,128,127,126,122,127,129,129,131,0
9738,128,128,127,128,128,126,127,128,0
9741,128,126,128,137,128,128,128,124,0
9744,127,127,130,136,128,128,128,129,0
9749,129,127,126,123,127,130,128,128,0
9754,128,128,128,125,129,127,128,127,0
9758,127,127,126,127,128,126,127,127,0
9761,126,127,128,127,129,127,128,128,0
9766,128,130,128,128,129,126,128,129,0
9769,128,129,129,130,126,126,129,124,0
9772,127,127,127,134,123,126,130,123,0
9776,127,126,127,121,129,128,127,129,0
9779,129,127,126,120,128,130,128,131,0
9782,129,127,128,122,128,127,126,125,0
9785,127,127,128,127,127,128,127,128,0
9787,127,127,126,127,128,127,128,130,0
9791,129,128,127,129,129,127,127,128,0
9794,128,129,126,123,128,129,128,127,0
9798,127,128,129,125,128,127,127,125,0
9800,126,126,128,123,127,128,128,127,0
9804,128,128,128,126,129,128,127,125,0
9808,128,128,129,133,129,126,127,129,0
9811,127,128,129,136,129,128,126,123,0
9814,126,127,129,138,124,129,129,124,0
9817,128,127,126,122,128,128,127,130,0
9821,129,130,126,123,128,128,126,130,0
9824,127,127,126,126,127,130,127,129,0
9828,126,127,126,127,128,128,129,128,0
9831,128,128,128,124,127,128,128,130,0
9835,128,128,127,124,130,128,127,125,0
9840,127,127,128,125,128,127,131,124,0
9843,126,127,127,137,123,126,130,122,0
9848,126,127,128,120,128,128,126,127,0
9851,129,129,128,125,128,127,128,128,0
9855,127,127,128,128,129,127,127,129,0
9860,126,129,128,127,128,127,127,129,0
9863,128,129,128,125,129,128,127,129,0
9866,129,127,128,127,128,127,128,129,0
9870,128,128,129,123,127,127,128,128,0
9873,127,128,127,129,128,130,127,123,0
9876,127,126,128,126,127,128,128,129,0
9879,128,127,128,125,127,128,127,129,0
9882,128,128,128,132,129,128,127,130,0
9886,126,127,129,137,125,128,129,122,0
9889,127,127,129,131,127,128,129,131,0
9893,129,130,127,126,129,126,127,132,0
9896,128,129,128,128,129,128,126,129,0
9898,127,127,126,126,130,126,127,128,0
9901,128,128,126,125,128,126,127,125,0
9905,129,130,128,136,128,128,127,131,0
9909,129,128,128,136,129,128,129,123,0
9912,127,127,129,137,125,126,129,124,0
9916,127,127,127,121,127,128,128,132,0
9919,129,128,126,123,129,126,128,132,0
9922,128,130,126,123,127,127,126,129,0
9926,127,127,126,123,127,128,128,124,0
9929,128,127,127,131,127,128,128,130,0
9932,129,127,126,123,128,128,128,128,0
9935,128,127,128,134,129,127,127,130,0
9938,126,127,126,124,129,126,128,119,0
9940,127,128,128,124,129,126,129,129,0
9944,129,128,127,135,126,128,129,129,0
9947,128,128,129,136,128,127,127,128,0
9949,127,128,129,132,129,127,129,123,0
9952,126,127,130,138,124,129,130,123,0
9956,129,127,127,124,128,128,128,133,0
9959,129,129,126,133,129,128,128,124,0
9964,127,128,128,132,126,127,129,124,0
9968,127,127,128,136,124,128,127,132,0
9971,129,127,128,120,129,129,127,131,0
9974,129,128,128,122,128,130,127,132,0
9978,127,126,126,123,130,130,128,121,0
9980,128,129,128,125,128,130,128,132,0
9984,129,128,128,124,128,127,128,131,0
9987,129,129,129,128,129,126,126,127,0
9990,124,127,126,125,129,126,127,126,0
9995,127,127,128,129,128,128,128,126,0
9997,128,127,128,126,127,127,130,128,0
10004,128,128,128,130,127,126,128,123,0
10007,127,127,127,131,125,126,129,121,0
10010,126,127,129,137,124,127,129,125,0
10013,129,129,128,122,128,128,127,130,0
10015,129,127,126,123,129,127,127,131,0
10019,128,129,128,124,129,128,125,125,0
10021,126,127,128,127,126,129,128,124,0
10025,128,127,128,125,128,128,127,132,0
10028,128,128,126,124,128,127,128,131,0
10031,125,128,130,138,125,128,129,122,0
10035,126,127,128,137,124,127,129,124,0
10038,128,127,128,122,128,129,128,131,0
10042,129,127,126,122,129,128,128,132,0
10047,126,128,126,127,129,128,126,126,0
10050,127,127,128,125,128,128,127,127,0
10053,128,127,128,125,129,127,127,131,0
10057,130,129,126,124,128,127,127,129,0
10061,128,129,128,136,126,127,128,124,0
10070,127,127,127,129,128,126,127,128,0
10075,128,127,129,130,128,127,127,127,0
10079,129,128,128,124,128,128,127,126,0
10083,128,128,130,138,125,127,131,125,0
10086,126,127,129,134,124,126,129,122,0
10089,128,126,128,124,128,128,127,132,0
10092,127,127,127,121,128,130,126,129,0
10096,128,127,126,128,128,130,127,131,0
10099,127,127,126,125,129,127,126,127,0
10103,127,129,128,128,128,127,127,131,0
10106,129,128,126,121,129,127,127,130,0
10108,129,128,127,130,127,127,128,128,0
10111,127,127,127,130,129,126,127,128,0
10114,128,129,129,124,128,126,127,128,0
10117,129,129,129,130,128,127,127,126,0
10119,128,127,129,136,129,127,127,129,0
10122,127,127,128,133,130,126,128,127,0
10125,127,129,129,135,128,128,129,128,0
10128,128,127,128,130,128,128,128,129,0
10131,128,128,128,130,127,127,126,126,0
10134,125,127,129,137,124,126,129,123,0
10137,127,127,129,136,124,129,128,130,0
10140,129,129,128,121,128,128,128,131,0
10143,128,127,128,125,127,130,128,129,0
10146,127,127,128,125,127,129,127,128,0
10149,128,127,128,123,129,128,127,127,0
10152,129,126,126,124,127,129,127,128,0
10156,128,129,126,129,128,126,127,129,0
10158,127,129,129,136,122,126,130,124,0
10165,126,127,129,136,125,127,127,128,0
10168,128,130,128,121,128,130,128,129,0
10172,128,127,125,126,128,127,126,131,0
10177,125,127,128,125,128,127,126,126,0
10181,126,126,127,130,127,128,128,129,0
10185,128,126,125,123,126,129,128,128,0
10188,128,127,126,123,127,127,127,122,0
10191,127,129,129,130,128,127,127,127,0
10193,127,127,127,129,128,126,127,128,0
10196,128,127,126,125,127,128,128,129,0
10199,128,128,129,125,126,127,128,122,0
10202,127,127,128,137,128,127,126,123,0
10205,126,126,129,139,125,129,130,123,0
10208,128,128,128,123,129,128,127,131,0
10211,128,127,128,123,128,128,127,125,0
10214,127,126,126,126,129,126,127,124,0
10216,127,126,126,127,128,130,127,125,0
10220,128,127,126,127,127,128,128,130,0
10224,128,127,128,125,127,128,127,132,0
10227,128,127,129,136,127,129,129,123,0
10231,126,127,129,139,125,129,128,131,0
10235,129,126,125,123,128,127,128,133,0
10238,129,127,126,121,128,128,126,130,0
10241,127,126,128,131,128,126,127,128,0
10244,126,127,128,128,128,127,129,120,0
10247,127,127,128,130,129,126,127,130,0
10250,129,128,126,127,127,128,128,129,0
10253,126,127,129,138,124,126,128,123,0
10258,126,127,129,137,124,128,128,131,0
10261,128,128,128,123,128,127,127,132,0
10266,130,129,126,123,129,128,126,129,0
10271,128,129,128,124,128,128,127,124,0
10273,126,126,128,127,128,127,126,128,0
10279,128,127,126,126,128,128,127,130,0
10283,129,128,128,127,128,127,126,127,0
10287,128,129,128,130,128,127,127,127,0
10290,127,127,127,129,126,126,129,121,0
10294,127,127,129,136,128,129,126,130,0
10297,129,127,126,122,127,128,128,132,0
10299,129,128,126,126,124,127,130,122,0
10303,126,127,129,138,124,127,129,125,0
10306,127,127,127,121,128,128,128,132,0
10309,129,128,126,122,129,126,127,131,0
10312,127,128,126,121,127,130,128,131,0
10315,127,128,126,127,127,129,128,130,0
10318,127,129,128,131,128,128,128,128,0
10321,129,130,128,128,129,127,127,126,0
10325,128,129,129,135,129,128,126,127,0
10328,127,128,129,129,130,126,125,123,0
10331,127,126,127,127,127,129,127,127,0
10334,129,129,126,127,128,126,128,129,0
10336,128,128,129,128,128,128,128,123,0
10339,126,127,128,134,121,128,130,123,0
10342,126,128,129,134,127,130,128,131,0
10346,129,127,126,123,128,128,126,131,0
10350,128,127,127,125,129,128,128,126,0
10353,127,126,126,125,129,128,126,128,0
10356,127,127,128,125,127,130,128,130,0
10359,129,129,126,126,129,128,126,128,0
10362,128,127,128,124,127,128,126,122,0
10365,127,127,127,125,127,127,126,130,0
10374,127,127,126,121,128,128,127,129,0
10377,129,127,126,122,127,127,128,131,0
10380,129,128,127,137,129,127,128,129,0
10385,127,128,127,125,127,127,128,121,0
10392,126,128,129,139,124,126,127,131,0
10395,129,127,126,122,128,127,128,132,0
10399,129,129,126,122,129,128,128,124,0
10403,127,127,128,123,129,127,127,127,0
10405,124,128,127,127,126,128,127,129,0
10408,127,127,128,125,128,127,128,129,0
10411,129,129,128,134,128,127,127,129,0
10413,127,127,128,128,127,126,128,122,0
10416,127,127,129,139,125,128,129,124,0
10423,128,129,126,120,127,128,127,131,0
10427,128,127,126,122,129,128,127,130,0
10431,128,127,128,127,128,127,126,127,0
10434,126,126,128,130,129,129,127,128,0
10437,128,126,128,127,128,127,128,130,0
10440,128,128,129,123,129,127,127,124,0
10444,125,129,129,133,130,127,127,128,0
10447,127,127,126,138,128,127,127,122,0
10451,128,126,126,123,127,127,128,133,0
10454,129,127,127,127,127,127,128,132,0
10457,126,129,129,138,124,127,131,125,0
10472,127,126,128,135,124,126,128,131,0
10477,128,127,126,126,127,129,128,130,0
10480,127,127,128,122,129,127,128,130,0
10484,126,128,126,124,129,127,128,128,0
10488,126,127,128,126,128,127,128,130,0
10491,128,128,126,123,128,127,128,132,0
10494,129,127,128,125,128,128,127,128,0
10498,129,127,128,123,127,130,128,123,0
10507,126,127,128,125,128,129,128,126,0
10512,128,127,127,124,128,128,127,128,0
10517,129,126,127,127,127,127,128,129,0
10523,128,130,129,122,129,126,127,127,0
10529,127,128,129,138,124,126,130,123,0
10533,127,127,130,139,126,131,127,130,0
10536,128,127,126,123,128,128,126,129,0
10539,128,129,128,126,127,128,127,127,0
10543,127,128,126,129,127,129,129,123,0
10546,127,127,128,129,128,128,129,128,0
10549,129,128,128,124,127,127,127,130,0
10553,128,129,128,130,125,126,129,123,0
10556,127,127,129,134,124,129,126,129,0
10559,128,129,128,123,128,128,127,129,0
10563,129,128,128,123,127,128,127,131,0
10566,129,131,128,124,127,128,127,123,0
10569,127,127,128,126,129,127,126,126,0
10572,127,130,126,129,129,128,127,127,0
10576,128,130,127,129,127,128,128,123,0
10586,128,129,128,131,126,126,129,123,0
10590,125,127,129,135,129,126,128,122,0
10593,127,127,129,127,129,128,127,131,0
10596,129,127,126,124,128,127,128,130,0
10600,129,128,128,123,129,127,127,127,0
10603,127,127,128,128,128,126,126,128,0
10606,127,129,129,129,127,127,128,129,0
10610,129,128,128,127,127,126,128,130,0
10613,128,128,128,124,129,126,128,124,0
10616,128,127,126,123,125,127,131,124,0
10625,127,127,129,137,123,127,128,130,0
10629,129,127,126,122,127,129,128,133,0
10632,129,130,127,123,129,126,126,128,0
10637,127,127,128,125,128,127,126,125,0
10643,127,127,126,124,129,127,127,127,0
10647,128,128,128,124,129,128,126,130,0
10650,128,127,126,122,128,127,127,129,0
10653,127,128,126,126,127,127,126,127,0
10656,126,127,128,130,126,127,127,127,0
10659,128,130,127,127,127,128,127,128,0
10663,128,128,129,129,127,126,127,124,0
10666,127,129,129,136,128,126,126,125,0
10669,126,128,128,128,127,127,128,120,0
10676,127,127,129,131,127,128,127,126,0
10679,128,127,126,128,124,127,130,127,0
10683,127,127,129,136,124,126,129,124,0
10687,126,126,127,123,129,130,128,130,0
10690,128,128,126,123,129,127,127,132,0
10693,127,129,128,125,129,129,126,128,0
10697,126,127,128,127,129,126,127,128,0
10700,127,127,128,123,128,129,129,126,0
10703,128,127,128,124,128,128,128,131,0
10706,129,130,128,126,127,128,128,128,0
10709,128,128,129,130,129,126,126,124,0
10713,127,128,129,124,128,128,128,126,0
10717,128,128,129,126,129,127,127,129,0
10720,129,129,128,129,128,127,127,127,0
10735,128,128,128,134,130,127,128,122,0
10739,126,127,128,137,123,126,129,124,0
10742,127,127,128,121,128,131,127,129,0
10745,129,127,128,121,130,128,127,131,0
10751,128,127,128,123,129,131,127,127,0
10754,127,127,126,123,127,127,126,126,0
10759,128,128,128,130,127,130,129,130,0
10764,129,128,128,131,128,127,127,130,0
10774,126,127,128,126,128,126,126,128,0
10780,127,128,129,141,125,128,128,123,0
10785,127,127,129,126,128,127,127,127,0
10788,129,126,126,125,127,127,129,131,0
10791,128,128,128,128,126,129,128,128,0
10795,127,127,128,124,128,127,128,125,0
10798,127,129,127,127,129,126,127,127,0
10801,129,127,127,122,127,128,129,123,0
10810,128,127,128,129,128,126,127,125,0
10816,126,127,128,129,128,127,126,127,0
10820,127,127,127,127,128,128,128,129,0
10823,129,128,128,129,128,126,129,123,0
10828,127,128,126,139,127,127,130,126,0
10831,127,126,128,134,122,127,130,123,0
10835,127,127,127,123,128,128,128,128,0
10838,128,127,125,122,127,129,127,129,0
10841,128,130,125,122,129,127,126,126,0
10845,126,127,128,123,128,129,127,124,0
10848,127,126,126,126,128,129,129,128,0
10852,129,128,128,130,127,127,129,128,0
10856,128,127,126,126,127,128,128,123,0
10859,127,129,128,130,128,127,127,120,0
10862,124,127,127,128,128,128,129,128,0
10865,129,128,127,126,128,127,127,127,0
10869,129,127,127,127,127,128,128,124,0
10872,126,129,128,126,129,126,128,122,0
10875,126,126,129,134,125,127,129,132,0
10879,129,127,127,123,129,126,128,132,0
10882,129,128,126,122,129,128,128,131,0
10889,127,127,128,124,128,128,127,129,0
10893,127,128,126,123,129,127,126,126,0
10896,129,129,126,124,126,129,127,125,0
10903,128,127,126,127,128,129,127,130,0
10908,125,127,128,125,129,127,126,128,0
10911,127,127,128,125,128,127,128,125,0
10914,128,127,128,127,128,128,127,130,0
10918,128,127,128,128,128,127,127,128,0
10923,127,128,129,134,129,127,127,129,0
10927,127,127,129,140,125,128,130,122,0
10930,128,128,129,136,124,127,129,131,0
10933,129,127,126,121,128,128,128,128,0
10937,128,127,128,126,127,127,128,123,0
10940,127,126,126,131,129,128,128,127,0
10943,128,127,127,127,128,128,128,132,0
10946,128,127,126,126,128,129,127,129,0
10949,128,127,129,137,125,127,129,124,0
10952,126,126,129,135,124,128,129,122,0
10956,128,129,128,122,129,128,127,131,0
10961,129,128,127,125,127,127,127,130,0
10966,128,127,126,123,130,127,125,126,0
10969,127,127,128,121,129,128,126,128,0
10972,128,127,126,120,128,127,128,131,0
10979,129,130,126,123,128,126,127,131,0
10982,128,129,129,126,128,127,127,126,0
10986,126,127,126,131,128,127,128,125,0
10990,127,128,128,127,128,126,129,129,0
10994,128,129,126,129,127,127,129,125,0
10997,127,128,128,138,127,126,129,124,0
11000,126,127,129,134,123,127,129,124,0
11004,127,127,128,123,128,130,128,132,0
11007,127,127,128,119,130,127,126,131,0
11016,128,127,128,124,129,127,127,127,0
11021,127,127,126,127,127,129,127,125,0
11024,125,128,128,126,127,129,128,129,0
11027,129,127,128,123,128,127,126,130,0
11031,128,127,127,124,128,129,127,130,0
11034,126,127,126,126,129,126,126,122,0
11037,127,127,128,127,127,129,129,127,0
11040,128,128,128,135,129,128,127,128,0
11052,128,127,126,125,127,125,129,123,0
11057,126,127,129,138,125,127,129,124,0
11060,127,126,126,121,129,127,128,131,0
11063,129,129,126,122,128,128,128,131,0
11067,128,127,126,123,129,126,127,128,0
11070,125,129,128,128,127,127,126,129,0
11073,127,129,128,126,128,127,127,130,0
11077,129,127,128,129,127,128,127,125,0
11086,128,128,126,126,128,129,128,124,0
11090,125,127,128,126,126,126,129,121,0
11093,126,127,129,138,126,128,128,130,0
11099,128,127,128,125,128,130,128,125,0
11096,129,127,127,123,129,127,126,126,0
11103,127,127,128,124,129,128,127,129,0
11108,127,128,126,125,127,128,128,129,0
11111,129,127,128,122,128,127,128,130,0
11114,129,128,128,125,128,126,127,125,0
11118,127,127,129,142,125,126,129,121,0
11121,126,126,129,139,124,127,127,128,0
11124,128,127,128,129,127,128,127,127,0
11127,129,127,128,124,128,128,127,129,0
11130,127,127,126,125,127,127,127,128,0
11135,125,129,129,129,128,128,127,128,0
11139,128,126,128,124,128,128,127,130,0
11143,129,128,128,128,126,127,127,129,0
11145,128,128,129,131,128,126,126,121,0
11148,126,127,129,138,125,126,129,121,0
11159,128,128,126,123,130,127,127,131,0
11162,128,127,126,122,127,130,128,125,0
11167,128,126,126,125,128,128,127,125,0
11170,126,126,126,124,129,129,128,127,0
11174,128,128,128,130,128,127,127,131,0
11177,128,129,126,124,127,128,127,127,0
11180,128,127,129,123,128,127,128,124,0
11183,126,127,129,136,124,127,129,124,0
11238,128,128,126,121,129,127,126,129,0
11247,129,127,128,119,128,128,126,130,0
11257,128,126,128,126,128,128,127,127,0
11264,127,129,126,123,129,127,126,127,0
11269,127,128,126,121,127,131,128,128,0
11310,129,128,126,126,127,129,127,126,0
11318,127,127,128,125,128,127,129,123,0
11323,127,127,129,134,123,126,130,123,0
11327,127,129,127,123,128,131,129,131,0
11330,128,127,126,123,129,128,127,130,0
11334,127,128,128,125,128,128,126,131,0
11375,126,127,127,133,128,127,127,125,0
11385,128,126,128,125,128,128,127,127,0
11403,128,127,128,131,127,127,128,127,0
11393,129,127,126,124,127,128,128,129,0
11408,127,127,129,133,129,127,127,129,0
11439,127,128,128,127,129,127,127,128,0
11448,127,128,126,126,129,127,127,125,0
11458,129,130,129,136,126,127,127,126,0
11508,125,126,129,138,125,127,130,122,0
11518,127,127,129,127,128,130,128,130,0
11525,129,127,125,123,128,130,128,132,0
11530,128,128,126,125,129,128,126,130,0
11535,127,126,128,127,129,127,127,127,0
11580,127,127,128,124,128,127,127,127,0
11591,129,130,128,128,129,127,127,128,0
11606,128,127,128,129,128,126,127,125,0
11615,125,127,128,131,124,125,129,123,0
11622,127,128,129,138,125,128,127,129,0
11627,129,127,126,123,128,127,128,131,0
11633,129,128,126,123,129,127,127,128,0
11638,127,127,129,134,129,126,127,130,0
11643,127,130,126,122,129,126,128,131,0
11647,129,129,128,128,128,128,128,130,0
11650,128,127,126,128,128,128,127,129,0
11653,127,128,128,125,127,127,126,121,0
11657,127,126,127,122,127,128,128,128,0
11660,129,127,125,127,127,127,128,129,0
11663,128,128,128,122,129,126,126,126,0
11666,127,127,126,127,128,126,126,127,0
11670,126,129,129,138,124,128,131,125,0
11678,127,129,128,124,127,128,127,133,0
11674,128,128,129,135,129,128,127,133,0
11684,127,129,126,127,129,127,125,126,0
11688,125,129,128,127,128,127,128,131,0
11692,129,127,128,125,128,127,127,131,0
11695,127,129,128,127,128,126,127,131,0
11698,126,127,126,127,126,127,128,122,0
11701,126,127,129,138,123,127,128,127,0
11704,128,129,126,121,128,128,127,132,0
11708,126,129,128,121,128,128,127,130,0
11711,127,127,126,127,128,128,127,122,0
11715,127,127,127,132,129,126,126,126,0
11718,127,128,128,125,128,126,127,128,0
11721,128,127,128,133,127,126,127,129,0
11725,127,129,129,137,129,127,126,124,0
11728,127,127,126,128,128,128,128,129,0
11732,129,128,127,123,128,128,128,130,0
11735,129,128,126,133,126,128,128,127,0
11739,127,128,126,126,128,126,126,125,0
11742,127,126,129,126,126,128,130,125,0
11745,127,126,129,135,123,128,127,130,0
11749,129,127,125,121,128,129,128,132,0
11752,126,129,126,124,129,127,127,127,0
11756,125,127,128,126,127,127,127,126,0
11759,127,127,127,123,128,126,128,130,0
11763,127,130,126,127,129,127,127,126,0
11766,128,127,128,131,127,127,125,121,0
11769,126,127,129,134,127,127,127,129,0
11776,128,128,128,121,128,129,129,129,0
11780,129,127,128,123,128,127,127,130,0
11784,128,129,126,122,129,128,127,124,0
11788,127,127,126,125,129,127,128,127,0
11791,126,127,126,125,127,128,129,128,0
11795,129,130,127,128,128,126,127,127,0
11848,128,127,126,128,123,127,130,125,0
11859,126,127,128,137,124,126,129,121,0
11864,125,126,128,126,128,129,128,128,0
11868,129,127,125,125,128,130,128,133,0
11871,129,129,126,125,130,127,125,127,0
11875,127,127,128,130,127,128,125,127,0
11878,126,129,128,127,129,127,127,128,0
11881,129,127,128,127,128,129,127,130,0
11885,128,127,128,127,128,128,127,132,0
11888,128,127,129,129,128,127,127,127,0
11890,125,128,129,127,128,128,127,127,0
11893,129,127,126,129,126,128,128,130,0
11896,129,128,128,131,126,127,127,127,0
11899,127,127,127,126,129,128,127,127,0
11902,126,127,128,137,124,129,129,122,0
11910,128,126,126,123,127,129,127,129,0
11913,128,127,126,127,128,127,128,125,0
11917,127,127,128,133,126,127,129,124,0
11920,127,126,128,134,129,127,126,132,0
11923,129,130,127,120,128,128,128,131,0
11927,129,127,126,121,128,130,128,130,0
11930,128,128,128,126,129,130,126,126,0
11934,126,127,128,121,128,128,128,131,0
11937,129,130,126,127,129,125,127,129,0
11940,129,129,128,128,127,127,127,125,0
11945,127,127,128,134,128,128,128,127,0
11951,127,127,128,137,126,126,128,129,0
11957,129,128,127,132,127,128,128,132,0
11960,129,130,126,126,127,127,126,127,0
11963,127,127,126,122,128,128,126,127,0
11967,127,127,129,136,127,128,129,121,0
11970,127,129,127,129,125,128,128,129,0
11973,128,129,128,122,126,126,128,130,0
11976,127,127,128,126,126,127,126,124,0
11980,126,127,129,136,122,126,130,125,0
11984,127,127,128,126,128,128,128,131,0
11986,129,127,125,125,128,127,127,132,0
11989,128,127,126,128,128,127,125,128,0
11992,128,127,128,124,129,127,126,126,0
11995,127,127,128,128,127,127,127,125,0
11998,129,127,128,125,128,128,128,132,0
12001,127,127,129,136,128,127,126,128,0
12004,127,128,128,125,128,128,128,124,0
12006,127,129,128,128,127,128,128,130,0
12009,129,127,128,123,129,128,127,129,0
12012,128,127,128,126,128,128,129,123,0
12016,126,126,128,135,124,126,130,124,0
12019,127,127,128,122,130,127,127,131,0
12024,129,128,128,127,127,128,127,130,0
12027,128,127,126,123,129,128,126,127,0
12047,125,127,128,127,128,128,126,127,0
12051,126,129,128,125,127,128,128,129,0
12056,129,128,128,127,125,126,127,130,0
12060,128,127,128,129,128,126,126,126,0
12063,125,128,126,125,128,126,126,127,0
12067,128,129,128,129,128,127,127,126,0
12072,129,127,128,130,125,128,127,131,0
12077,129,127,128,132,127,126,126,124,0
12081,127,127,128,128,128,127,127,128,0
12084,126,127,126,125,127,128,129,129,0
12088,129,126,128,125,127,128,128,127,0
12115,128,129,126,122,129,126,127,128,0
12121,126,126,129,135,121,128,131,124,0
12125,126,127,129,135,127,128,128,132,0
12130,129,128,128,122,129,127,127,129,0
12134,128,127,126,122,128,128,126,130,0
12150,127,127,128,123,129,127,126,128,0
12155,127,127,126,124,127,129,128,129,0
12159,129,127,126,128,127,129,129,133,0
12163,127,128,126,127,129,127,127,128,0
12167,127,127,127,126,127,127,128,128,0
12171,127,128,128,135,127,128,128,127,0
12175,129,130,127,127,128,127,127,127,0
12179,129,127,128,129,128,129,129,126,0
12182,127,127,129,139,124,127,129,121,0
12186,127,126,129,137,127,128,128,130,0
12189,127,128,127,123,129,127,128,132,0
12192,127,131,126,123,129,127,127,128,0
12196,127,128,129,125,129,127,126,127,0
12204,127,127,128,123,128,128,127,130,0
12207,129,126,126,124,127,129,128,131,0
12213,129,129,128,126,128,128,127,130,0
12216,126,129,128,130,129,127,128,129,0
12221,127,127,129,132,128,128,128,130,0
12224,128,129,127,127,127,129,128,132,0
12230,128,127,128,126,127,128,129,127,0
12234,127,127,128,136,124,127,129,128,0
12237,126,127,129,135,125,129,128,135,0
12240,129,129,125,122,127,128,128,137,0
12244,129,129,125,123,129,129,126,136,0
12247,128,128,128,127,129,127,126,131,0
12250,127,126,127,128,130,131,128,130,0
12253,128,127,128,125,129,126,129,135,0
12257,127,130,126,129,129,126,127,132,0
12260,126,128,128,130,128,127,128,127,0
12263,127,127,127,129,128,128,128,127,0
12266,128,127,128,125,127,128,128,131,0
12271,129,128,128,124,127,127,126,127,0
12275,127,129,126,126,126,126,127,129,0
12277,127,128,129,137,123,130,129,127,0
12281,127,129,125,124,127,129,128,132,0
12284,129,129,128,124,129,125,126,130,0
12287,126,128,126,125,128,127,127,127,0
12291,127,127,128,122,129,129,126,126,0
12294,128,129,128,126,129,128,127,131,0
12296,128,129,128,127,126,128,128,130,0
12299,128,128,129,137,125,127,128,125,0
12302,127,127,129,136,126,126,129,125,0
12308,128,128,127,119,128,129,127,131,0
12312,129,127,125,120,129,128,128,131,0
12317,129,128,126,121,130,126,127,131,0
12320,126,130,128,128,130,126,126,126,0
12323,126,129,128,124,127,129,127,128,0
12328,129,127,126,125,127,129,128,127,0
12330,128,130,126,124,129,126,126,128,0
12334,127,127,129,135,123,128,130,123,0
12340,127,127,130,129,128,128,128,130,0
12344,129,130,128,128,129,127,127,127,0
12347,128,127,127,131,129,126,127,126,0
12350,127,127,126,130,130,127,127,126,0
12353,128,128,126,125,128,126,127,127,0
12356,128,127,126,125,127,128,128,129,0
12359,128,127,128,128,129,125,127,128,0
12362,126,127,129,137,126,127,129,122,0
12365,126,128,129,130,129,127,127,126,0
12368,128,129,127,123,128,128,128,127,0
12371,128,127,128,125,128,128,127,130,0
12375,125,129,129,133,127,127,127,126,0
12378,127,126,128,131,129,128,128,129,0
12381,129,127,127,124,128,128,127,128,0
12384,128,127,128,126,128,129,128,124,0
12387,127,127,128,134,127,129,129,123,0
12390,126,126,129,137,123,127,127,128,0
12395,129,127,126,123,128,127,127,131,0
12398,127,129,128,126,129,127,126,127,0
12401,127,128,129,133,129,128,126,127,0
12406,127,127,128,124,128,128,129,126,0
12409,129,127,128,125,129,128,128,127,0
12412,128,127,127,123,129,125,127,129,0
12415,126,127,126,129,129,128,127,124,0
12418,127,128,128,136,128,126,128,125,0
12421,129,129,126,124,128,128,127,124,0
12426,128,127,128,127,127,128,129,121,0
12430,127,126,129,135,122,127,130,120,0
12435,127,126,129,137,123,126,127,128,0
12437,129,127,128,123,128,129,127,130,0
12442,129,128,128,122,129,128,126,126,0
12448,126,127,127,121,128,130,126,123,0
12452,127,125,127,127,128,128,127,124,0
12456,128,126,125,124,128,128,128,125,0
12458,129,125,126,123,127,128,128,124,0
12462,128,125,128,124,129,126,127,119,0
12465,126,124,126,128,128,127,128,122,0
12468,128,125,128,127,129,126,127,123,0
12472,129,128,129,132,128,125,127,117,0
12475,127,126,126,126,128,128,129,117,0
12480,127,125,129,137,125,127,129,118,0
12483,128,126,125,125,129,127,127,124,0
12487,129,125,128,125,128,128,127,123,0
12491,127,125,126,125,128,129,128,121,0
12494,126,125,126,125,129,127,127,125,0
12497,128,126,126,129,128,127,127,121,0
12507,128,126,127,127,127,130,127,121,0
12512,127,126,127,131,128,127,127,127,0
12515,126,126,128,128,129,126,127,125,0
12518,128,127,128,127,128,127,128,125,0
12521,129,127,127,129,128,126,128,126,0
12525,126,127,129,136,122,128,130,122,0
12528,126,125,129,135,124,126,129,123,0
12531,126,126,127,121,130,128,127,130,0
12535,129,124,128,124,129,130,126,129,0
12539,128,125,127,128,129,127,127,129,0
12542,127,127,129,125,129,127,127,123,0
12545,126,128,126,124,129,127,128,125,0
12549,129,127,126,126,127,129,129,129,0
12554,128,128,128,129,129,127,127,130,0
12559,127,127,128,126,128,129,127,123,0
12563,127,126,129,130,128,126,127,129,0
12567,129,128,129,129,127,130,129,125,0
12573,128,128,127,127,129,126,128,124,0
12577,127,127,128,136,125,127,130,122,0
12580,126,127,128,125,129,127,127,131,0
12583,128,128,126,121,129,129,127,131,0
12586,129,126,126,122,129,127,126,130,0
12589,127,128,128,126,128,129,127,125,0
12591,127,127,126,125,128,128,129,130,0
12595,129,129,129,127,127,127,127,127,0
12598,128,127,126,126,127,129,128,128,0
12601,127,128,129,133,129,126,126,125,0
12605,127,127,127,127,127,128,129,125,0
12608,129,128,126,126,127,128,128,126,0
12611,128,127,126,125,128,128,127,126,0
12613,127,128,128,134,129,129,128,124,0
12617,127,126,127,121,128,126,127,131,0
12620,129,130,128,125,128,126,128,125,0
12623,128,127,127,124,127,127,128,127,0
12627,127,127,128,135,125,126,129,126,0
12630,127,127,129,136,125,130,128,132,0
12633,129,128,126,125,129,128,127,131,0
12636,129,128,126,123,130,129,127,132,0
12639,127,126,128,125,128,128,127,129,0
12642,126,128,127,126,129,127,126,128,0
12645,129,128,127,129,127,127,128,128,0
12648,128,127,128,127,127,129,128,131,0
12651,127,128,128,124,128,129,128,122,0
12656,126,127,127,130,127,129,129,126,0
12659,128,128,128,128,128,127,128,129,0
12662,129,129,127,135,129,125,128,125,0
12668,127,128,126,129,126,127,129,127,0
12673,126,128,130,137,123,128,128,132,0
12677,129,128,127,125,128,127,128,133,0
12680,127,128,127,123,129,127,126,130,0
12683,127,128,129,128,128,128,125,127,0
12687,125,128,129,129,129,127,126,128,0
12690,128,127,126,125,128,128,126,128,0
12693,128,127,126,126,127,128,128,125,0
12696,128,128,129,130,129,127,126,127,0
12699,128,128,126,126,128,129,129,127,0
12703,128,127,128,126,126,127,128,132,0
12706,129,129,128,127,127,127,127,132,0
12710,128,128,127,123,128,128,127,124,0
12714,126,128,128,132,124,127,129,126,0
12717,127,128,128,120,128,130,127,131,0
12719,128,127,126,124,127,129,127,133,0
12722,128,127,126,127,128,127,127,130,0
12726,128,127,126,125,129,126,126,127,0
12729,128,125,128,130,126,127,127,128,0
12731,129,127,128,130,128,126,126,127,0
12734,126,128,127,126,129,126,126,126,0
12737,127,128,127,134,128,127,128,123,0
12739,127,128,127,124,128,127,129,131,0
12743,129,128,128,122,129,127,127,127,0
12746,128,128,129,127,128,130,127,128,0
12749,126,128,129,137,129,127,128,126,0
12752,127,128,127,128,128,126,127,126,0
12755,129,127,126,128,126,126,126,130,0
12757,126,128,129,136,124,127,130,128,0
12760,126,126,128,134,123,128,129,124,0
12763,127,126,127,122,130,129,128,128,0
12767,128,127,127,122,128,130,127,130,0
12774,129,127,128,121,128,128,128,130,0
12777,128,128,126,122,129,127,127,126,0
12780,127,127,126,121,126,128,128,130,0
12784,127,130,126,124,129,125,127,129,0
12787,127,129,127,130,128,126,126,126,0
12790,125,128,129,121,129,128,128,128,0
12793,127,127,126,126,128,128,127,131,0
12796,129,127,128,126,128,129,127,131,0
12801,129,129,127,128,127,126,125,129,0
12805,127,127,129,127,128,126,125,122,0
12811,126,127,127,125,127,127,128,128,0
12815,129,129,127,129,128,127,127,129,0
12818,128,127,128,131,126,126,126,130,0
12823,127,127,126,127,127,127,126,124,0
12826,127,127,128,136,123,127,130,124,0
12830,128,128,128,119,127,131,127,132,0
12833,129,127,125,123,129,127,125,130,0
12836,128,128,128,125,127,129,127,129,0
12839,126,127,126,122,128,127,126,128,0
12842,129,128,128,129,128,127,127,128,0
12845,128,127,126,125,127,129,126,127,0
12848,127,127,129,126,127,127,127,126,0
12853,126,127,126,130,128,125,127,129,0
