Start Recording
4,130,129,127,130,126,128,128,127,0
7,128,128,128,126,126,128,125,125,0
14,120,127,130,128,128,126,125,126,0
18,119,126,127,129,128,128,128,127,0
24,131,128,129,126,129,128,128,128,0
27,130,128,127,128,129,127,129,127,0
31,128,126,126,127,129,128,128,127,0
34,127,127,128,127,127,127,127,128,0
37,128,129,130,128,127,127,127,128,0
40,128,129,128,128,128,127,126,127,0
44,129,126,127,129,125,126,129,128,0
47,128,126,127,128,127,127,128,128,0
50,127,129,130,129,126,127,128,128,0
53,127,128,129,127,128,127,126,126,0
56,122,127,127,128,132,127,126,126,0
58,123,126,127,128,128,128,126,129,0
61,131,129,127,127,132,129,129,129,0
64,134,128,126,127,130,128,128,128,0
82,131,128,128,128,127,127,128,127,0
86,128,126,127,128,131,126,128,128,0
89,130,128,129,127,127,126,128,128,0
93,128,128,128,128,128,127,129,127,0
96,124,127,125,128,125,126,126,126,0
99,119,126,130,130,129,127,125,127,0
102,122,126,128,127,129,127,129,128,0
106,131,130,131,130,127,127,128,129,0
112,127,129,128,130,131,128,128,125,0
116,136,125,131,128,129,128,128,128,0
119,133,127,125,126,129,128,129,129,0
122,127,129,121,126,131,128,130,129,0
125,128,128,126,129,126,126,125,127,0
129,118,126,128,128,125,127,127,126,0
133,127,125,128,130,128,128,128,129,0
136,130,130,127,128,130,130,129,128,0
139,132,128,127,127,126,127,127,127,0
142,132,127,130,135,123,127,128,127,0
144,124,122,130,127,133,127,129,127,0
154,129,130,124,127,128,128,128,128,0
157,131,126,131,130,127,127,126,126,0
160,120,126,124,129,128,126,125,125,0
164,118,127,127,129,127,127,127,126,0
167,144,125,127,126,130,128,128,127,0
169,141,122,127,127,128,129,129,131,0
172,125,129,124,127,128,128,128,127,0
175,130,129,127,126,127,128,127,129,0
178,134,129,126,130,123,126,128,128,0
181,134,123,128,126,129,128,126,127,0
185,128,124,129,124,127,127,127,126,0
189,129,126,127,129,128,127,125,127,0
192,129,131,130,125,129,128,126,128,0
195,127,128,128,128,124,127,126,126,0
198,128,128,132,129,126,126,126,126,0
201,127,128,129,127,127,127,126,128,0
204,128,129,137,131,124,127,127,126,0
208,128,128,129,130,127,126,128,126,0
212,128,127,126,130,129,126,126,123,0
236,114,126,136,129,134,129,122,124,0
241,121,129,137,129,132,131,124,126,0
245,129,124,143,128,136,134,120,122,0
249,130,120,135,130,138,134,117,124,0
252,128,126,129,136,137,135,115,124,0
256,131,126,135,138,138,137,111,129,0
259,129,123,133,129,144,142,104,123,0
264,130,123,136,132,141,144,107,126,0
267,131,123,140,131,142,144,100,127,0
270,138,120,152,130,146,147,97,125,0
274,138,120,148,128,147,146,92,126,0
276,139,113,158,126,144,141,85,131,0
279,137,112,164,130,134,141,79,130,0
282,143,114,156,126,126,136,78,129,0
286,144,118,160,128,115,136,80,128,0
288,143,119,167,131,111,138,79,128,0
291,142,120,166,132,99,140,81,127,0
295,150,115,169,134,96,139,84,130,0
307,147,114,167,130,95,137,83,126,0
310,149,117,161,134,91,136,88,125,0
314,143,120,158,132,94,136,92,127,0
318,145,119,167,129,94,137,94,128,0
321,142,120,190,134,93,138,95,129,0
325,142,123,193,133,94,144,99,127,0
328,136,138,170,125,96,150,104,130,0
331,131,138,171,126,100,155,107,128,0
336,132,142,166,130,99,157,114,128,0
340,137,144,173,130,109,164,113,127,0
344,139,156,144,130,111,165,121,132,0
350,139,160,125,130,115,163,123,130,0
354,135,152,121,124,119,162,118,128,0
357,131,149,100,126,119,162,110,125,0
360,120,141,97,128,114,161,98,125,0
362,115,136,96,129,115,163,96,125,0
365,120,134,95,131,109,160,96,122,0
368,121,126,106,133,96,164,97,118,0
371,121,123,97,127,93,161,105,116,0
384,116,124,90,127,93,164,116,114,0
388,121,122,104,130,127,175,106,114,0
391,122,121,101,128,107,173,123,119,0
396,122,115,96,125,104,156,139,124,0
399,122,124,103,133,94,152,149,128,0
403,125,130,100,128,104,151,152,130,0
406,117,125,94,122,113,151,153,133,0
409,107,125,99,127,118,151,156,135,0
412,109,126,99,127,122,151,153,137,0
415,114,129,100,127,123,148,155,138,0
419,117,127,100,127,122,143,158,138,0
422,115,130,101,129,120,134,158,137,0
425,108,130,102,127,116,139,158,137,0
435,115,129,100,124,118,133,158,137,0
438,120,129,102,125,118,126,155,137,0
442,117,129,105,128,119,123,155,136,0
445,113,129,108,126,121,121,157,135,0
449,123,127,112,119,120,120,159,135,0
454,125,131,111,117,125,123,158,133,0
458,113,127,117,123,120,123,159,132,0
463,124,128,110,127,122,120,154,131,0
470,132,131,106,126,128,116,155,132,0
474,133,129,117,128,126,115,153,131,0
477,127,126,106,119,129,118,150,130,0
481,129,130,115,121,132,120,149,128,0
484,135,130,111,122,133,124,147,128,0
487,132,126,115,125,135,120,145,130,0
505,124,126,114,125,131,109,148,134,0
509,123,126,112,121,135,102,152,139,0
513,126,127,114,119,134,105,155,143,0
517,129,129,114,118,130,102,156,143,0
520,128,122,121,118,130,102,156,142,0
524,132,131,120,116,128,100,156,144,0
527,130,139,114,116,124,99,158,139,0
531,136,134,117,118,125,97,158,138,0
534,139,135,118,117,127,97,160,137,0
538,128,135,116,118,131,99,157,140,0
543,132,135,119,115,138,103,159,141,0
545,145,129,118,122,139,110,160,138,0
548,134,134,118,122,140,108,157,128,0
551,132,132,121,123,139,112,158,127,0
555,138,135,118,122,141,118,159,128,0
558,130,138,113,121,138,119,158,126,0
563,129,135,119,121,137,119,159,124,0
566,127,134,123,124,136,117,154,122,0
569,135,134,125,123,141,113,154,122,0
572,130,134,127,124,138,112,152,123,0
576,126,134,133,129,138,108,149,118,0
580,118,131,132,131,141,109,144,120,0
584,125,129,130,132,144,108,141,119,0
587,124,130,132,133,144,106,140,118,0
590,123,127,132,133,147,106,136,116,0
593,120,127,136,135,144,103,133,118,0
596,116,125,132,133,146,106,131,119,0
600,114,125,133,134,147,104,130,117,0
604,111,123,134,136,147,102,127,113,0
607,108,124,133,138,148,100,126,114,0
610,108,120,135,137,148,101,127,115,0
613,108,120,134,137,148,101,124,114,0
622,128,119,134,136,149,102,124,115,0
625,121,117,137,135,144,100,124,117,0
628,116,119,135,135,147,102,125,119,0
632,117,120,134,136,146,102,123,120,0
635,115,121,134,135,146,103,124,120,0
638,116,119,134,134,146,103,123,122,0
641,116,122,134,136,146,104,126,122,0
644,118,124,133,133,145,106,124,123,0
647,118,124,131,135,145,107,125,123,0
650,118,124,131,134,142,109,128,123,0
659,120,124,130,131,143,111,126,123,0
663,123,127,130,129,142,110,127,124,0
666,124,128,128,128,142,112,128,124,0
670,124,126,128,130,142,113,129,124,0
674,125,128,127,127,142,114,131,126,0
678,126,129,126,129,140,115,131,126,0
681,128,130,128,127,142,115,131,124,0
686,120,132,124,125,141,117,133,123,0
696,120,131,129,127,140,119,134,127,0
699,130,133,121,124,145,121,136,127,0
703,129,132,122,124,142,123,135,128,0
706,126,131,125,125,141,122,135,126,0
709,122,130,125,125,139,124,135,127,0
712,128,131,125,124,142,123,135,125,0
716,126,129,126,125,139,124,134,124,0
719,120,131,126,125,141,125,133,124,0
731,123,128,127,124,140,127,135,126,0
736,127,129,125,124,141,129,135,126,0
739,131,132,124,125,140,129,135,125,0
742,131,129,125,124,137,131,135,126,0
746,128,129,127,124,136,132,134,126,0
749,129,130,127,125,135,132,132,127,0
753,131,129,127,125,136,130,132,129,0
755,130,128,127,126,136,132,133,129,0
758,125,127,127,126,133,133,131,129,0
762,127,130,127,126,136,133,129,130,0
765,133,129,128,126,135,132,128,127,0
774,131,127,128,125,132,134,130,126,0
779,133,126,128,125,133,133,130,131,0
782,134,125,127,126,135,135,130,130,0
785,136,128,128,125,131,135,129,132,0
789,139,127,129,125,130,134,129,131,0
792,136,123,127,126,132,134,126,131,0
796,126,126,127,125,133,134,128,132,0
798,137,128,128,124,132,134,133,132,0
809,135,128,128,126,135,133,132,129,0
815,135,126,127,125,131,133,130,131,0
818,133,128,128,123,130,132,129,131,0
822,133,127,128,120,129,131,129,131,0
826,131,128,130,121,130,131,130,131,0
829,128,125,130,122,128,131,128,132,0
833,127,128,131,119,130,130,127,132,0
836,129,128,127,119,128,129,127,132,0
845,127,125,128,120,126,128,124,131,0
849,129,124,127,119,128,128,124,133,0
853,125,126,127,119,128,126,124,131,0
856,130,128,129,118,128,125,123,131,0
859,126,127,129,120,127,125,120,128,0
862,122,127,130,120,126,125,120,129,0
866,123,126,129,119,129,126,121,130,0
869,127,127,128,119,128,125,123,129,0
872,127,126,127,119,128,125,122,128,0
876,129,126,128,120,127,125,122,128,0
879,127,128,130,120,127,125,123,129,0
882,128,127,126,120,124,125,121,129,0
885,127,125,126,121,126,126,122,127,0
899,127,127,130,124,124,125,119,125,0
904,121,126,131,123,122,127,120,128,0
907,128,126,128,123,125,127,121,131,0
911,126,125,128,123,125,127,121,131,0
914,126,128,128,124,124,125,120,127,0
918,122,125,131,125,124,125,121,128,0
922,125,126,129,126,125,128,123,128,0
925,129,126,126,124,124,126,119,129,0
930,127,125,126,125,120,126,120,127,0
936,127,126,129,126,125,124,122,126,0
940,128,129,130,128,124,126,123,127,0
943,131,126,125,126,124,126,122,126,0
946,121,130,130,129,123,127,120,124,0
950,123,128,128,127,123,128,122,126,0
953,131,129,129,127,124,126,122,126,0
956,132,128,127,127,123,127,122,127,0
959,126,127,126,126,121,126,121,128,0
962,128,126,129,129,123,126,124,127,0
965,130,129,129,127,126,126,125,127,0
975,128,127,127,127,124,128,123,127,0
985,124,127,127,129,117,126,121,125,0
988,121,128,128,128,121,127,121,125,0
1004,132,128,128,126,125,127,121,126,0
1007,130,129,130,129,125,127,122,126,0
1011,130,126,126,127,122,127,122,126,0
1014,127,125,130,129,123,127,120,127,0
1017,128,129,130,129,125,127,123,128,0
1020,129,127,128,129,121,128,122,128,0
1024,127,126,129,131,121,126,121,125,0
1027,123,128,129,131,119,128,124,128,0
1030,129,128,128,130,124,128,125,128,0
1033,129,127,127,130,124,130,123,128,0
1037,126,126,128,130,122,127,123,127,0
1039,126,127,127,132,123,128,125,128,0
1044,129,128,126,130,124,128,123,128,0
1047,131,129,128,131,124,128,124,128,0
1050,124,127,128,132,120,126,120,125,0
1056,123,128,130,132,122,128,121,127,0
1062,124,128,128,131,123,128,124,128,0
1065,132,128,125,130,125,130,125,128,0
1068,126,126,127,130,124,126,122,127,0
1071,129,128,125,131,125,128,124,127,0
1075,129,128,129,130,126,130,124,128,0
1078,132,129,128,131,124,128,126,127,0
1082,129,128,130,132,125,129,126,127,0
1084,124,126,128,131,125,128,127,125,0
1087,125,129,130,133,121,129,124,129,0
1090,131,128,127,131,125,130,126,128,0
1093,127,128,129,130,127,127,123,126,0
1097,124,128,128,131,124,128,123,127,0
1099,125,129,129,131,122,129,125,128,0
1103,133,129,128,129,127,128,126,127,0
1106,130,126,129,129,127,128,128,127,0
1109,130,126,127,130,126,130,127,129,0
1112,127,127,127,129,126,127,125,128,0
1115,131,129,128,128,129,130,129,129,0
1125,130,128,127,130,128,130,125,127,0
1129,124,128,130,131,125,130,126,125,0
1132,124,129,129,128,127,131,127,128,0
1134,132,129,129,128,127,130,130,129,0
1138,131,127,125,129,127,130,127,127,0
1141,127,128,129,130,124,127,128,127,0
1144,128,127,129,128,129,129,128,128,0
1147,129,128,128,127,129,129,130,127,0
1150,130,128,129,130,123,128,125,127,0
1154,129,127,128,128,124,128,125,127,0
1159,123,127,129,130,127,127,125,128,0
1163,132,129,127,129,129,129,127,128,0
1166,130,127,127,126,130,130,126,127,0
1169,130,127,127,124,130,126,125,128,0
1172,124,127,128,127,130,127,127,128,0
1175,131,128,128,127,129,130,128,129,0
1178,131,128,128,129,127,128,127,127,0
1182,122,129,128,129,128,129,126,126,0
1185,123,128,128,128,127,129,125,128,0
1198,131,130,128,127,130,128,128,128,0
1201,130,127,126,126,128,129,128,128,0
1205,126,125,128,127,130,129,128,128,0
1210,125,126,125,129,128,129,126,128,0
1214,131,128,128,129,127,126,126,128,0
1217,129,128,128,130,125,129,126,126,0
1220,124,128,128,131,126,129,125,125,0
1224,121,128,128,130,127,128,127,127,0
1233,127,129,129,128,127,127,126,128,0
1237,130,128,130,127,130,129,128,128,0
1240,128,124,127,129,126,126,127,126,0
1243,122,128,130,131,126,129,126,128,0
1246,131,128,127,129,127,129,127,128,0
1250,130,127,128,129,128,128,128,128,0
1253,130,126,125,129,127,129,128,127,0
1256,128,127,128,127,127,128,127,128,0
1269,129,128,128,129,130,129,128,129,0
1272,131,128,126,130,129,127,127,128,0
1277,121,125,129,131,125,129,126,126,0
1283,124,128,128,129,127,129,126,127,0
1287,127,129,127,127,131,130,127,127,0
1290,131,129,127,126,129,128,130,128,0
1294,131,127,128,129,124,128,127,127,0
1297,126,127,128,127,126,128,128,128,0
1303,128,128,126,127,129,129,129,129,0
1306,131,127,126,128,126,129,127,128,0
1310,129,127,128,128,122,128,128,128,0
1314,127,126,130,130,125,128,126,127,0
1317,122,130,129,128,129,129,126,128,0
1320,125,129,127,126,129,128,126,127,0
1324,130,128,128,128,126,127,128,128,0
1327,129,127,126,128,125,128,127,128,0
1330,129,127,127,127,131,129,127,127,0
1335,131,129,127,128,130,128,128,128,0
1341,130,126,126,129,124,129,127,127,0
1345,123,128,127,128,128,128,126,127,0
1348,124,128,129,129,125,129,127,127,0
1351,131,129,128,127,130,128,127,128,0
1354,130,128,128,127,130,127,129,128,0
1358,130,124,125,126,128,128,128,128,0
1361,128,126,126,128,127,127,127,129,0
1363,131,128,129,130,127,127,126,127,0
1366,129,129,128,130,123,128,128,128,0
1379,128,125,126,127,124,129,125,126,0
1382,121,128,129,130,125,126,127,130,0
1386,131,128,126,128,126,129,127,127,0
1392,128,128,129,126,128,128,127,127,0
1399,127,127,127,127,129,129,126,126,0
1403,121,128,129,130,127,127,126,129,0
1406,131,129,127,127,127,129,127,128,0
1409,131,129,128,128,128,127,128,127,0
1413,129,127,126,127,130,128,128,125,0
1417,121,127,128,129,125,127,128,128,0
1421,130,129,126,128,129,129,129,129,0
1425,128,128,126,126,127,128,128,128,0
1428,122,128,128,129,127,127,127,127,0
1431,122,129,128,128,124,127,127,127,0
1434,130,128,126,126,128,128,129,128,0
1437,131,128,126,128,127,128,129,129,0
1440,127,127,126,129,125,127,126,127,0
1443,120,126,128,129,126,127,127,128,0
1452,130,130,129,130,126,127,127,127,0
1456,130,129,131,128,128,128,127,127,0
1460,128,128,126,127,126,127,127,125,0
1463,121,128,128,129,125,127,127,127,0
1466,132,129,128,129,128,128,127,128,0
1471,131,128,126,128,126,128,127,128,0
1475,128,128,130,129,125,126,128,127,0
1478,126,126,128,128,128,128,127,128,0
1488,129,127,127,128,129,128,128,128,0
1491,128,127,128,130,129,127,128,127,0
1495,130,127,128,130,128,127,126,126,0
1498,120,127,128,129,127,128,126,127,0
1502,123,129,129,129,125,128,128,128,0
1507,131,128,128,126,128,128,128,128,0
1512,130,127,127,129,126,126,128,127,0
1515,122,127,127,129,126,127,127,127,0
1518,130,128,127,129,129,128,128,128,0
1525,128,126,130,129,128,127,127,127,0
1521,132,128,125,128,130,128,128,128,0
1528,130,127,129,129,127,127,126,127,0
1532,121,128,128,128,132,129,129,128,0
1535,131,129,130,128,130,128,128,128,0
1538,131,126,127,130,126,128,128,126,0
1540,123,128,128,128,128,127,126,127,0
1543,132,128,128,127,129,128,128,128,0
1546,131,128,126,127,130,129,128,129,0
1549,131,128,126,128,126,128,127,127,0
1559,127,127,128,129,128,128,128,129,0
1562,124,127,127,126,129,128,129,129,0
1565,131,128,126,128,127,128,126,128,0
1569,128,127,128,129,124,128,127,125,0
1574,125,128,128,129,128,127,127,126,0
1577,124,128,129,128,124,128,128,128,0
1581,131,129,128,128,131,128,128,128,0
1584,131,127,126,127,126,127,129,128,0
1594,128,125,125,127,126,128,129,127,0
1598,127,128,129,128,129,128,128,128,0
1602,128,128,126,128,128,128,129,128,0
1605,130,126,126,128,124,128,128,127,0
1608,128,126,129,129,126,128,127,126,0
1611,121,128,128,128,126,128,126,129,0
1615,132,129,127,127,128,128,129,129,0
1621,131,126,126,128,129,129,129,127,0
1631,129,125,126,127,125,127,127,127,0
1636,127,127,127,128,128,127,126,127,0
1640,129,129,128,127,129,128,129,128,0
1643,124,124,129,129,127,127,126,125,0
1646,122,129,129,127,126,128,126,126,0
1650,122,128,128,128,127,127,129,128,0
1653,132,130,127,127,129,128,129,128,0
1656,132,127,127,127,128,128,127,128,0
1659,129,128,128,128,129,128,129,128,0
1663,129,126,125,127,128,128,128,128,0
1666,130,128,127,128,127,127,126,128,0
1678,129,128,128,128,124,127,127,125,0
1681,121,129,129,128,127,128,126,126,0
1685,122,129,128,128,124,129,129,128,0
1689,130,128,126,126,128,128,128,128,0
1692,131,128,128,128,129,128,129,128,0
1695,128,125,125,127,127,128,128,128,0
1699,127,126,126,128,127,128,128,129,0
1702,128,129,129,128,127,128,128,128,0
1705,129,128,126,128,129,128,127,127,0
1708,124,127,129,128,124,128,128,128,0
1714,125,127,127,129,126,127,126,127,0
1717,123,130,130,128,127,128,126,128,0
1721,132,129,130,127,129,128,129,128,0
1724,128,126,126,126,126,128,128,126,0
1727,126,124,126,127,127,127,127,127,0
1731,129,129,129,128,128,128,128,127,0
1736,128,128,128,129,128,127,127,126,0
1740,124,129,128,128,127,127,127,126,0
1749,122,128,129,128,127,128,126,127,0
1753,124,125,129,128,128,128,129,128,0
1757,132,129,129,127,128,128,128,127,0
1760,129,127,127,128,128,128,127,128,0
1763,128,125,126,128,130,128,128,128,0
1766,129,127,128,129,129,128,129,129,0
1770,130,127,127,128,128,128,129,128,0
1773,129,126,128,128,128,128,128,127,0
1776,128,127,127,128,128,128,128,127,0
1779,128,128,129,128,129,128,129,128,0
1782,129,127,126,128,129,128,129,128,0
1791,128,127,128,129,126,127,126,126,0
1795,123,128,129,128,126,127,127,126,0
1798,123,129,129,129,127,127,127,128,0
1802,133,129,130,127,129,127,129,128,0
1805,128,127,126,127,128,128,128,127,0
1808,128,125,128,127,127,127,127,128,0
1812,127,127,130,128,128,128,127,127,0
1815,130,128,128,128,128,128,129,128,0
1827,128,126,126,128,128,127,126,126,0
1831,129,126,128,129,125,127,126,127,0
1835,121,129,128,128,128,128,129,129,0
1838,129,127,128,127,131,128,129,128,0
1842,129,126,127,128,129,128,129,127,0
1846,128,125,128,129,126,128,127,126,0
1850,123,129,128,128,125,128,128,129,0
1856,132,128,126,127,130,129,129,128,0
1860,130,127,125,125,130,128,129,128,0
1863,130,125,125,128,127,127,126,127,0
1867,128,127,129,128,129,128,128,128,0
1874,129,129,128,128,128,128,128,129,0
1877,129,126,126,128,126,127,126,127,0
1881,122,128,129,129,126,127,127,127,0
1884,123,127,128,128,126,127,127,129,0
1887,132,128,127,127,128,128,128,129,0
1890,132,128,128,128,128,127,127,128,0
1894,128,128,126,127,130,130,127,127,0
1897,128,127,128,127,127,128,127,128,0
1900,130,129,130,128,128,127,127,128,0
1903,127,128,130,128,126,127,127,128,0
1913,130,126,128,128,124,128,128,128,0
1917,128,127,128,128,129,128,129,129,0
1920,127,128,127,129,129,127,126,127,0
1924,131,128,126,127,127,127,126,126,0
1927,125,129,128,129,126,128,126,126,0
1930,121,128,129,129,127,128,127,127,0
1934,124,129,126,126,129,128,131,130,0
1937,129,128,126,128,132,128,128,128,0
1940,131,127,126,127,127,127,127,127,0
1947,130,128,127,127,127,129,129,129,0
1944,125,125,130,128,129,127,127,128,0
1954,129,127,125,127,128,127,129,128,0
1959,128,125,126,128,125,127,127,126,0
1963,121,129,128,130,127,127,127,126,0
1969,124,128,127,127,130,129,128,128,0
1972,132,128,127,128,132,128,130,128,0
1975,130,127,127,127,128,127,128,128,0
1979,126,125,126,128,129,128,129,128,0
1982,127,128,126,127,128,128,129,129,0
1990,131,128,127,127,125,127,127,127,0
1994,125,127,128,127,130,128,128,126,0
1997,127,127,128,128,128,128,128,125,0
2001,123,128,129,128,126,127,127,127,0
2004,124,128,128,127,128,128,127,127,0
2007,131,126,125,128,129,128,128,128,0
2011,121,125,127,128,128,126,128,128,0
2014,129,129,128,127,129,128,129,128,0
2025,132,126,126,127,129,128,128,129,0
2029,122,125,125,128,128,127,129,128,0
2032,128,127,126,127,125,127,127,128,0
2035,129,128,129,127,127,127,126,128,0
2039,127,129,126,129,127,127,127,127,0
2042,123,130,129,127,128,128,126,126,0
2045,123,128,128,128,127,128,127,127,0
2048,122,128,130,127,129,128,127,129,0
2051,131,128,126,126,128,128,127,128,0
2055,130,127,125,126,127,127,127,128,0
2062,131,125,127,126,126,127,129,128,0
2066,128,128,128,127,128,127,129,130,0
2069,130,128,126,125,128,128,129,128,0
2073,129,127,128,126,125,127,129,128,0
2077,126,125,127,127,128,128,128,126,0
2083,122,129,129,128,125,128,129,129,0
2087,131,128,127,126,129,128,128,127,0
2090,130,126,129,128,125,127,126,127,0
2093,123,129,127,125,128,128,128,127,0
2098,127,126,125,127,128,128,127,128,0
2101,133,129,130,127,131,128,128,129,0
2105,131,127,126,125,129,130,128,128,0
2108,127,126,128,127,130,127,129,127,0
2112,125,126,127,128,130,129,130,128,0
2115,129,127,126,127,129,128,128,128,0
2118,130,128,126,128,127,128,127,128,0
2122,127,127,128,127,126,128,126,126,0
2128,122,128,129,129,125,127,126,127,0
2131,130,129,128,128,126,128,126,128,0
2142,132,127,128,127,130,127,127,128,0
2146,127,127,130,128,129,128,127,128,0
2149,128,125,126,128,126,127,128,128,0
2154,131,128,128,128,128,128,126,128,0
2157,128,129,129,129,127,128,126,126,0
2160,123,128,130,130,126,128,127,127,0
2164,122,128,129,129,126,127,127,127,0
2167,131,130,128,128,127,128,127,128,0
2170,133,128,127,127,127,128,127,128,0
2174,129,127,125,127,130,130,129,128,0
2178,127,126,128,128,127,127,126,127,0
2186,129,129,129,129,128,127,127,127,0
2191,128,128,128,129,129,127,128,128,0
2195,126,128,129,129,126,127,127,127,0
2199,121,128,129,128,128,127,126,126,0
2205,124,128,126,127,128,128,128,129,0
2209,131,128,126,128,128,128,128,128,0
2214,130,127,126,128,128,128,129,128,0
2217,125,126,126,128,128,128,129,129,0
2220,130,128,126,127,127,127,126,128,0
2223,131,129,129,128,128,128,129,127,0
2227,127,128,126,129,128,128,130,127,0
2230,121,128,127,129,125,127,128,127,0
2233,123,125,127,127,127,128,129,129,0
2236,131,129,127,128,125,127,128,128,0
2240,129,128,128,127,129,128,126,126,0
2243,123,128,128,127,127,127,126,128,0
2246,130,129,128,127,128,128,128,128,0
2250,130,129,128,127,129,128,129,128,0
2253,130,126,125,126,128,127,126,127,0
2265,127,127,128,127,126,127,127,127,0
2268,128,128,129,127,129,128,130,128,0
2272,131,129,126,127,128,128,128,128,0
2277,130,127,128,127,126,127,127,127,0
2280,122,125,129,128,127,127,128,127,0
2284,123,129,128,128,127,127,129,129,0
2288,131,129,126,126,127,128,128,128,0
2291,130,128,128,128,126,127,127,127,0
2295,127,127,128,128,125,127,127,127,0
2298,123,128,129,127,130,128,128,127,0
2301,130,129,129,128,124,127,127,127,0
2305,129,128,128,126,129,127,127,127,0
2308,125,127,128,127,127,128,128,126,0
2311,122,128,129,128,127,127,127,127,0
2316,124,127,128,128,129,128,129,129,0
2319,132,127,127,127,128,128,126,126,0
2324,130,126,128,127,124,128,129,127,0
2328,130,126,126,126,128,127,128,128,0
2333,131,128,126,128,129,128,129,129,0
2336,129,128,126,128,129,128,127,127,0
2339,130,128,127,128,126,127,128,126,0
2342,123,129,129,128,126,127,127,126,0
2346,124,130,129,128,127,126,127,128,0
2349,133,128,127,127,128,127,127,127,0
2355,131,127,128,127,128,127,128,127,0
2359,123,124,127,127,126,128,127,129,0
2362,131,129,127,129,126,128,126,127,0
2365,133,128,129,128,127,127,127,126,0
2369,125,129,128,128,127,128,127,125,0
2373,122,129,129,128,124,130,128,129,0
2376,132,128,127,127,129,128,127,127,0
2380,132,129,127,128,129,128,127,127,0
2391,129,127,128,129,128,129,129,128,0
2395,118,126,128,128,125,128,128,128,0
2399,130,128,127,127,129,128,129,129,0
2402,130,127,126,127,127,127,127,127,0
2405,127,126,127,128,125,128,128,125,0
2409,120,127,129,129,126,127,127,127,0
2412,129,130,129,128,129,126,126,128,0
2415,130,128,128,128,130,128,127,127,0
2426,131,125,127,127,128,127,129,127,0
2430,125,126,125,128,127,128,127,127,0
2433,122,129,129,128,129,128,129,128,0
2437,131,127,126,127,128,127,127,128,0
2444,130,127,126,127,129,128,128,127,0
2451,126,126,126,127,127,128,128,128,0
2457,129,128,127,127,128,127,126,129,0
2463,131,128,129,128,124,127,127,128,0
2470,122,129,130,128,126,128,127,126,0
2475,122,129,129,128,126,127,127,127,0
2478,123,128,126,127,129,128,128,128,0
2481,131,129,130,127,130,128,129,128,0
2485,132,128,127,127,128,127,128,127,0
2488,128,125,130,127,128,127,128,127,0
2491,129,128,128,127,128,128,129,129,0
2494,131,127,126,127,126,128,128,128,0
2498,129,127,128,128,123,128,128,128,0
2500,125,126,127,129,128,127,126,127,0
2504,127,128,129,127,128,128,128,128,0
2508,127,128,127,130,129,127,127,127,0
2512,126,127,128,129,125,127,126,125,0
2516,122,128,128,128,126,127,127,126,0
2519,123,128,127,127,126,128,128,128,0
2522,131,130,130,128,128,128,126,128,0
2525,130,129,130,127,128,128,128,128,0
2528,128,127,125,125,129,128,127,126,0
2532,124,126,129,128,130,127,128,128,0
2536,130,129,128,130,129,128,128,128,0
2542,128,125,127,129,127,127,126,126,0
2547,122,128,128,129,126,127,127,126,0
2552,123,128,127,128,129,127,128,128,0
2557,130,129,128,127,128,128,128,128,0
2560,132,128,129,127,131,127,128,127,0
2564,126,127,128,127,130,127,129,127,0
2567,124,126,127,127,130,128,128,129,0
2570,126,127,126,127,128,128,130,128,0
2574,128,127,129,128,129,128,127,129,0
2579,129,124,127,130,129,127,127,126,0
2585,121,128,128,129,128,127,127,127,0
2588,123,129,127,126,128,128,127,128,0
2590,130,128,127,130,127,127,127,128,0
2594,126,127,130,127,128,128,127,127,0
2597,125,127,127,128,128,128,129,129,0
2600,129,129,126,127,127,128,128,128,0
2603,129,129,128,127,127,127,126,127,0
2607,128,126,127,127,127,127,127,124,0
2610,123,130,129,127,127,128,126,127,0
2615,122,129,130,127,129,128,127,128,0
2622,129,128,129,128,129,128,129,128,0
2626,129,127,125,127,127,129,129,127,0
2629,126,126,127,128,128,128,128,129,0
2632,129,127,126,126,127,127,127,128,0
2635,131,127,127,127,128,128,128,126,0
2638,124,128,128,129,126,128,126,126,0
2642,122,128,129,128,126,126,128,128,0
2646,132,128,127,126,129,128,128,127,0
2658,132,128,128,127,127,127,128,128,0
2662,129,127,129,128,125,127,127,127,0
2665,126,127,130,128,129,128,129,129,0
2668,128,128,126,128,129,128,129,129,0
2672,129,127,127,127,126,127,127,127,0
2675,123,128,129,127,126,127,127,126,0
2679,122,128,128,126,127,127,126,127,0
2682,128,130,129,129,127,128,127,127,0
2685,133,127,126,126,128,129,128,128,0
2689,130,126,127,126,126,128,127,128,0
2695,128,125,128,127,127,127,128,128,0
2699,126,127,126,127,129,127,129,129,0
2703,131,126,125,128,128,128,129,128,0
2709,129,126,126,129,126,127,126,126,0
2713,122,127,130,129,126,126,126,127,0
2715,124,128,128,128,128,128,127,128,0
2718,131,129,128,126,130,128,129,128,0
2721,131,126,127,127,127,127,127,128,0
2730,129,126,127,128,126,128,127,128,0
2734,128,128,127,128,129,128,128,128,0
2737,129,128,127,127,129,128,129,129,0
2745,127,127,126,128,126,127,128,127,0
2749,127,128,129,128,126,127,128,127,0
2753,122,129,129,128,125,128,128,128,0
2757,133,128,130,127,131,128,128,127,0
2760,131,128,129,127,127,127,127,127,0
2764,130,125,125,128,127,128,129,128,0
2767,127,127,126,126,127,127,126,128,0
2770,129,129,128,128,125,128,127,126,0
2774,124,129,129,128,126,127,127,126,0
2778,124,128,127,128,124,130,128,128,0
2783,130,127,126,126,128,128,127,128,0
2787,131,130,128,128,128,128,127,127,0
2790,129,128,128,128,128,126,128,127,0
2793,127,126,129,128,125,127,128,127,0
2797,126,128,130,129,126,127,127,127,0
2800,129,129,128,128,129,128,128,128,0
2808,131,127,129,129,126,127,127,126,0
2812,122,128,130,128,127,127,127,127,0
2815,123,129,126,127,130,128,127,127,0
2819,132,129,128,128,129,128,128,128,0
2822,130,128,127,127,129,127,128,127,0
2826,131,127,126,127,128,126,127,127,0
2831,127,126,129,128,127,127,128,128,0
2836,128,128,128,128,130,129,129,129,0
2846,129,126,127,128,129,127,128,128,0
2858,123,129,129,127,127,128,127,127,0
2850,127,127,128,127,130,128,128,126,0
2862,131,127,127,128,129,128,130,128,0
2855,121,129,130,130,126,127,126,128,0
2867,123,127,126,128,128,130,129,127,0
2870,124,125,126,129,128,127,127,128,0
2874,130,128,128,127,126,127,127,128,0
2877,130,129,128,127,127,126,128,127,0
2880,126,127,127,126,126,127,127,128,0
2883,128,126,128,129,127,128,127,127,0
2887,123,130,129,128,127,127,128,127,0
2890,124,130,129,129,126,127,129,129,0
2893,130,126,126,127,129,129,129,127,0
2896,129,126,125,126,128,128,128,129,0
2900,130,129,127,127,128,128,128,128,0
2903,132,129,128,126,128,127,126,127,0
2906,130,127,126,128,128,127,127,129,0
2909,126,127,126,126,125,127,128,129,0
2913,126,128,126,126,125,127,127,128,0
2915,129,129,129,129,129,128,129,127,0
2926,121,129,128,128,127,128,127,126,0
2930,121,129,128,127,127,127,127,128,0
2935,129,129,131,127,129,128,127,128,0
2938,132,127,126,130,127,127,127,127,0
2942,128,128,128,127,130,128,130,127,0
2945,128,125,127,127,126,127,127,128,0
2948,127,129,129,128,127,127,127,128,0
2952,131,128,129,126,125,127,127,127,0
3004,123,129,128,131,126,127,127,126,0
3010,124,128,129,126,127,127,126,127,0
3014,131,128,126,126,130,128,129,128,0
3018,133,128,127,126,128,128,129,128,0
3022,129,126,126,127,127,129,129,127,0
3026,128,126,126,127,129,128,129,128,0
3074,127,128,126,126,125,126,128,128,0
3083,130,127,126,127,127,128,128,128,0
3089,128,125,126,127,124,127,125,126,0
3097,122,128,128,128,127,127,127,127,0
3101,122,128,128,127,130,128,127,128,0
3140,132,128,127,127,129,128,129,128,0
3153,132,127,126,126,128,129,130,129,0
3159,129,126,126,127,127,127,126,127,0
3208,128,128,128,127,127,128,127,127,0
3219,128,129,129,128,127,127,127,128,0
3229,128,128,129,128,123,127,127,127,0
3236,128,125,126,128,125,127,127,127,0
3241,126,126,129,127,125,127,127,127,0
3246,130,128,129,127,127,127,127,127,0
3250,130,127,129,128,127,128,127,125,0
3254,124,128,129,127,127,127,126,126,0
3257,123,129,128,127,127,127,129,128,0
3261,132,129,127,128,130,128,128,127,0
3265,130,128,125,127,127,127,128,126,0
3268,130,127,128,126,128,127,127,127,0
3271,127,128,129,127,128,127,127,127,0
3276,128,129,128,127,129,128,127,128,0
3281,129,126,130,128,126,127,127,127,0
3286,129,127,127,126,129,128,128,128,0
3292,124,125,124,126,128,128,127,128,0
3295,130,129,128,128,126,127,127,127,0
3298,130,127,128,129,128,128,127,127,0
3301,128,128,128,130,127,127,127,124,0
3305,122,129,130,128,127,127,127,128,0
3308,126,129,128,128,130,128,129,129,0
3311,130,128,126,125,129,130,129,128,0
3314,129,124,128,128,126,129,127,127,0
3340,127,126,129,128,126,127,127,128,0
3345,131,129,126,128,128,128,129,129,0
3350,129,128,126,128,129,128,126,126,0
3354,124,129,129,128,127,127,127,125,0
3357,122,128,127,128,128,127,127,129,0
3360,132,129,129,127,128,127,127,128,0
3363,132,129,127,127,131,127,128,128,0
3366,128,126,125,128,131,128,129,129,0
3410,128,127,128,128,126,127,127,128,0
3420,131,127,131,129,131,128,127,128,0
3426,131,127,126,127,128,130,128,129,0
3431,128,127,128,128,129,127,129,128,0
3435,125,124,127,128,127,127,127,128,0
3439,128,128,127,128,126,127,127,128,0
3442,130,129,129,127,128,127,127,127,0
3446,121,128,129,127,127,128,126,126,0
3449,122,128,129,128,126,127,128,128,0
3453,130,128,126,127,129,128,129,128,0
3458,131,128,127,126,126,127,127,127,0
3463,130,128,128,128,126,127,127,128,0
3466,129,126,126,127,127,128,129,129,0
3470,127,127,126,127,128,128,129,128,0
3473,130,127,126,128,124,128,129,128,0
3476,129,128,129,130,127,128,127,125,0
3479,121,128,128,127,126,128,126,126,0
3482,123,129,128,128,126,128,128,128,0
3485,133,129,128,127,128,127,127,127,0
3489,130,127,126,127,129,127,128,127,0
3492,130,127,129,128,128,128,128,128,0
3495,128,127,127,128,129,128,129,128,0
3499,130,128,126,127,128,128,129,129,0
3502,130,127,127,128,127,126,128,127,0
3505,127,127,128,128,129,127,128,126,0
3508,123,129,128,129,127,127,127,127,0
3512,131,129,128,128,129,126,127,128,0
3515,128,127,129,127,129,128,129,128,0
3518,129,125,129,128,127,127,127,127,0
3520,127,127,128,127,127,128,126,128,0
3524,129,127,126,128,126,128,129,127,0
3527,129,128,130,129,127,127,127,127,0
3530,123,128,130,129,126,127,127,126,0
3533,124,127,127,128,130,130,128,128,0
3543,129,129,129,127,129,127,128,128,0
3547,131,127,126,127,127,128,130,127,0
3549,123,128,127,128,127,127,127,128,0
3553,130,126,126,126,129,128,129,129,0
3556,131,127,126,125,130,128,129,129,0
3560,131,127,125,128,128,128,129,129,0
3564,129,125,125,127,126,127,126,125,0
3570,124,127,125,127,126,128,128,129,0
3574,130,128,127,126,127,127,127,129,0
3576,130,128,128,128,124,129,128,126,0
3579,125,127,128,129,126,127,127,126,0
3582,121,129,128,128,127,127,127,128,0
3585,133,129,128,127,129,128,127,127,0
3588,130,127,127,128,130,130,131,128,0
3591,128,126,126,127,129,127,129,128,0
3594,129,125,125,127,129,128,129,129,0
3610,129,128,127,128,129,128,129,129,0
3614,129,127,126,127,124,127,127,127,0
3620,128,127,128,128,126,127,126,127,0
3623,122,128,128,128,125,127,127,129,0
3627,131,129,127,127,130,128,129,128,0
3632,131,128,126,127,128,128,129,129,0
3636,129,126,127,127,126,127,127,127,0
3639,124,125,126,127,129,128,128,128,0
3682,129,129,129,128,126,127,126,128,0
3708,122,128,130,127,125,128,127,128,0
3700,122,128,128,128,127,127,126,126,0
3692,131,128,127,127,124,127,127,126,0
3713,129,129,131,126,128,127,127,128,0
3746,133,129,129,129,129,128,128,129,0
3752,130,127,126,128,127,129,128,125,0
3768,121,126,128,128,126,127,127,127,0
3778,123,129,127,128,131,128,128,129,0
3787,130,129,125,126,129,128,129,128,0
3795,130,127,126,126,128,128,128,128,0
3803,128,126,129,129,126,127,127,127,0
3810,131,129,127,125,129,127,127,128,0
3814,131,129,130,127,129,128,130,127,0
3817,130,127,130,128,129,127,126,127,0
3820,127,128,126,126,127,127,127,128,0
3823,126,128,127,127,125,128,126,128,0
3827,130,129,129,128,126,128,127,128,0
3830,129,128,128,129,126,126,126,126,0
3833,121,129,129,130,126,127,126,126,0
3836,122,126,125,124,130,128,127,128,0
3838,131,129,128,127,129,127,126,127,0
3841,131,128,128,125,128,127,127,127,0
3845,126,126,127,128,124,128,127,127,0
3847,128,127,129,128,127,128,126,127,0
3851,128,129,128,126,129,126,129,129,0
3854,129,127,126,128,126,128,128,126,0
3858,128,126,127,127,127,128,127,128,0
3860,120,128,128,129,127,128,127,128,0
3864,124,130,129,128,126,127,127,127,0
3867,124,129,129,128,127,127,128,127,0
3870,133,126,125,126,127,128,127,127,0
3874,129,127,127,126,128,127,128,129,0
3877,132,130,129,127,128,127,127,128,0
3879,132,127,128,127,128,128,127,127,0
3882,131,128,129,128,122,127,129,129,0
3885,126,126,126,128,129,128,129,128,0
3888,128,128,127,128,129,127,128,128,0
3891,129,128,128,128,125,127,128,128,0
3894,124,126,126,127,128,127,126,126,0
3897,121,129,130,129,127,127,127,127,0
3903,125,127,126,127,128,127,126,127,0
3908,130,128,127,127,125,127,127,127,0
3911,126,126,125,127,128,128,129,128,0
3914,126,124,125,127,128,128,129,129,0
3917,131,129,127,129,125,127,127,128,0
3920,132,127,126,128,126,127,128,125,0
3925,122,128,127,129,127,128,127,126,0
3928,123,128,129,129,127,127,127,127,0
3932,131,129,130,128,130,128,128,128,0
3934,131,128,127,128,127,127,127,127,0
3937,130,126,127,127,130,127,128,127,0
3940,124,127,130,128,127,127,127,127,0
3943,128,128,129,128,126,127,127,128,0
3945,131,128,130,127,125,128,129,128,0
3948,127,125,127,129,127,128,128,128,0
3951,118,129,128,131,125,127,127,126,0
3954,124,129,130,128,127,127,127,128,0
3957,125,125,127,128,130,128,129,127,0
3960,131,127,126,128,131,128,129,128,0
3963,128,125,126,127,128,128,129,129,0
3966,130,129,126,127,128,128,127,127,0
3969,132,128,127,127,128,127,127,128,0
3973,130,125,126,127,127,128,128,127,0
3976,122,128,128,129,127,128,127,127,0
3979,123,129,127,128,130,130,129,129,0
3982,132,128,127,128,129,128,129,128,0
3985,131,126,126,127,128,127,128,128,0
3987,130,127,126,128,127,128,129,128,0
3991,128,128,128,128,126,127,126,128,0
3994,132,129,126,125,126,127,127,127,0
4002,129,127,127,128,125,127,129,128,0
4006,127,126,127,127,126,127,127,127,0
4009,128,125,126,128,128,128,128,128,0
4013,131,129,128,128,129,127,129,128,0
4016,124,124,129,128,126,128,126,126,0
4019,121,130,129,128,125,127,126,127,0
4022,122,129,127,128,127,128,128,129,0
4025,131,128,127,127,132,130,128,128,0
4028,131,128,127,127,125,127,128,127,0
4031,131,125,126,128,127,127,127,127,0
4035,128,127,128,128,131,127,128,128,0
4038,127,128,126,128,126,127,127,127,0
4041,129,127,128,128,126,127,127,126,0
4044,121,128,127,128,127,128,128,127,0
4048,123,127,127,127,128,128,128,129,0
4051,132,128,127,127,129,127,128,128,0
4055,129,128,130,128,127,126,127,127,0
4058,127,127,130,129,128,126,127,127,0
4067,127,127,129,128,129,127,128,128,0
4071,129,128,126,127,128,128,129,128,0
4074,126,127,125,128,126,128,128,127,0
4077,122,128,128,128,127,127,127,127,0
4080,122,128,128,128,127,127,127,127,0
4084,131,129,127,127,129,127,126,128,0
4087,131,129,130,128,128,127,128,128,0
4089,130,125,129,128,128,127,128,128,0
4092,129,126,127,128,126,127,129,129,0
4095,131,128,126,126,129,128,129,129,0
4098,123,128,127,129,128,127,125,127,0
4101,123,128,128,127,126,127,126,126,0
4104,122,125,126,128,124,128,128,129,0
4109,131,129,126,126,128,128,126,127,0
4114,132,128,128,126,128,127,128,128,0
4117,129,125,126,128,130,127,129,126,0
4120,125,126,127,128,129,128,128,128,0
4123,127,128,126,126,129,128,128,128,0
4126,130,127,127,127,130,127,127,127,0
4128,123,129,128,129,126,127,127,126,0
4131,122,128,128,128,127,127,128,127,0
4139,123,129,128,127,128,126,127,129,0
4142,132,126,125,127,127,127,129,129,0
4145,130,126,126,127,129,127,127,126,0
4148,128,126,128,127,126,127,126,128,0
4151,130,129,129,128,129,128,128,128,0
4155,131,128,126,127,127,126,126,127,0
4158,127,127,126,128,127,127,127,125,0
4161,122,128,129,129,127,127,127,128,0
4165,123,127,128,127,128,128,128,129,0
4168,132,128,128,127,130,128,128,128,0
4172,129,126,126,127,128,128,128,128,0
4176,128,127,131,128,127,127,128,128,0
4179,129,126,126,128,126,128,128,129,0
4182,128,128,127,127,128,128,127,128,0
4185,130,127,126,128,125,126,128,126,0
4188,123,127,128,130,126,127,127,126,0
4191,122,129,130,129,127,127,127,128,0
4194,133,129,127,128,128,127,127,128,0
4197,127,128,127,128,129,127,129,126,0
4200,122,127,126,130,125,126,127,127,0
4203,122,127,126,125,129,128,127,129,0
4208,130,129,128,128,128,126,127,128,0
4213,128,126,129,128,127,126,127,127,0
4217,128,125,128,128,125,126,126,127,0
4220,128,128,130,128,130,127,127,127,0
4224,128,129,128,128,128,127,128,128,0
4228,127,126,125,126,130,128,129,128,0
4231,128,126,129,128,127,127,126,126,0
4236,123,130,129,129,124,129,129,129,0
4239,132,128,126,128,129,128,128,128,0
4243,131,126,126,127,129,127,129,128,0
4247,123,128,128,129,127,127,127,126,0
4252,123,129,128,129,128,127,127,128,0
4255,131,129,130,127,130,129,128,128,0
4259,131,128,126,126,128,129,128,128,0
4262,129,126,126,127,126,127,127,128,0
4266,127,126,128,126,128,128,127,128,0
4269,129,128,130,126,131,127,127,127,0
4273,128,128,126,128,124,127,127,127,0
4276,130,128,126,127,128,127,128,128,0
4279,129,127,129,129,126,127,126,126,0
4283,124,128,128,127,129,128,128,129,0
4285,131,129,128,128,123,127,128,127,0
4288,127,128,125,124,125,127,127,125,0
4291,121,128,126,127,126,128,128,129,0
4295,131,127,127,127,125,128,128,129,0
4298,131,128,127,128,125,126,127,126,0
4301,125,129,127,128,128,128,127,126,0
4304,121,128,130,129,128,127,127,128,0
4307,131,130,128,127,129,128,127,127,0
4311,132,128,128,128,129,128,129,127,0
4317,130,126,125,127,128,127,129,126,0
4320,126,126,130,128,124,127,130,129,0
4324,130,128,127,126,126,128,129,128,0
4327,130,129,128,126,128,128,128,127,0
4330,128,126,128,129,127,127,127,127,0
4333,121,128,129,129,124,128,129,129,0
4336,132,129,126,126,128,128,128,129,0
4340,130,128,128,128,127,128,129,127,0
4344,128,128,131,127,129,127,128,127,0
4347,124,124,124,128,127,127,127,128,0
4350,129,129,127,128,125,127,127,128,0
4353,132,128,128,127,130,126,128,129,0
4356,126,126,128,128,128,127,127,127,0
4359,127,126,129,129,126,128,127,127,0
4365,123,129,128,128,127,128,128,128,0
4372,132,128,125,125,130,128,129,129,0
4376,129,127,126,127,129,129,129,128,0
4379,120,123,129,128,123,127,127,127,0
4383,123,130,128,127,127,127,127,128,0
4386,133,129,128,125,128,128,127,127,0
4389,129,127,127,127,128,128,127,127,0
4392,128,125,129,129,129,127,129,129,0
4396,129,127,128,126,128,128,128,128,0
4399,130,128,128,127,129,128,127,128,0
4402,124,128,127,128,128,127,127,127,0
4405,123,125,126,127,125,128,127,127,0
4408,127,128,128,128,129,129,129,128,0
4411,129,127,127,127,124,127,128,127,0
4416,124,128,128,129,127,128,128,126,0
4422,124,128,128,129,127,127,126,127,0
4425,124,127,131,128,129,128,128,127,0
4429,132,129,126,128,130,128,129,128,0
4432,130,126,125,125,128,128,128,127,0
4435,128,128,128,129,125,127,128,127,0
4438,122,130,128,127,128,127,128,128,0
4442,132,129,128,126,130,128,127,128,0
4445,130,128,129,128,125,126,126,127,0
4448,128,126,130,128,127,128,127,128,0
4451,128,127,127,127,128,127,129,129,0
4455,127,129,126,129,127,127,130,127,0
4458,123,129,129,127,127,127,126,126,0
4460,123,128,129,129,127,127,127,127,0
4467,123,129,130,127,127,127,129,129,0
4469,134,129,125,128,128,129,128,129,0
4472,131,127,128,127,129,127,128,128,0
4475,130,126,126,129,129,128,129,128,0
4478,129,126,126,127,128,128,127,128,0
4481,130,129,129,126,127,127,127,128,0
4485,129,127,127,126,128,128,129,128,0
4488,130,125,126,127,126,127,129,128,0
4492,120,124,125,127,128,127,129,128,0
4495,130,128,126,126,127,128,127,128,0
4499,129,129,128,128,126,127,127,126,0
4504,123,129,128,127,127,128,127,125,0
4507,122,129,129,129,126,128,126,128,0
4511,131,128,128,127,129,128,127,128,0
4515,131,128,129,127,128,128,129,127,0
4520,129,127,126,127,129,128,132,129,0
4526,124,125,126,128,129,127,128,128,0
4529,130,128,127,127,130,127,127,127,0
4533,128,129,127,129,128,128,129,128,0
4536,120,128,128,128,127,127,127,127,0
4538,121,127,128,129,126,127,126,127,0
4541,127,129,128,127,128,128,128,127,0
4544,130,127,127,129,128,127,127,127,0
4548,129,127,126,125,130,127,126,127,0
4551,128,126,127,126,131,127,128,128,0
4554,130,127,127,129,127,127,127,128,0
4558,130,127,126,128,125,127,126,126,0
4562,122,128,128,128,126,127,127,126,0
4566,121,128,128,129,127,127,128,128,0
4569,130,129,127,126,128,127,127,128,0
4574,132,128,127,128,130,127,128,128,0
4577,130,126,125,127,131,128,128,128,0
4580,126,126,126,128,129,128,128,128,0
4585,129,127,125,127,127,128,127,129,0
4588,131,127,126,127,125,128,126,128,0
4591,128,126,126,127,128,125,127,126,0
4595,127,125,126,128,125,128,129,127,0
4598,128,128,129,128,128,128,128,128,0
4602,129,127,128,128,128,128,129,128,0
4605,130,125,129,128,127,127,127,126,0
4608,121,128,128,128,127,128,128,126,0
4612,123,129,129,128,126,127,129,128,0
4616,132,129,130,128,130,130,128,129,0
4619,131,127,126,127,128,128,130,128,0
4623,130,126,126,127,126,128,127,127,0
4629,130,128,128,128,127,126,128,129,0
4633,132,128,127,128,127,127,126,127,0
4636,129,128,128,128,124,127,127,127,0
4638,122,127,128,128,128,127,127,127,0
4641,121,127,127,128,129,128,129,129,0
4644,131,127,127,127,127,128,127,127,0
4647,130,128,128,128,128,128,126,128,0
4650,127,127,128,126,129,128,128,128,0
4653,120,129,129,128,127,128,127,127,0
4657,124,129,128,129,129,128,127,128,0
4659,131,127,126,127,128,127,126,127,0
4663,128,125,125,127,127,128,129,128,0
4667,127,126,126,128,129,128,129,129,0
4670,131,128,127,127,127,128,128,128,0
4672,130,128,126,129,124,127,127,127,0
4676,123,129,129,128,126,128,128,127,0
4680,123,128,128,129,127,127,127,128,0
4683,133,129,128,127,129,128,127,128,0
4687,132,129,128,128,128,127,128,128,0
4690,129,126,128,129,127,127,127,127,0
4693,128,128,128,125,129,128,128,127,0
4696,129,128,129,128,129,128,127,128,0
4700,130,127,127,127,128,128,127,126,0
4703,129,127,129,128,126,128,127,127,0
4706,120,128,128,128,127,127,127,127,0
4709,123,128,128,128,128,127,126,127,0
4713,130,129,128,127,128,127,127,126,0
4717,129,126,128,128,126,127,126,126,0
4720,122,128,128,129,126,127,127,128,0
4725,132,129,128,128,128,128,129,129,0
4729,131,128,126,126,128,128,129,128,0
4733,129,127,126,126,127,128,127,127,0
4740,126,126,129,128,129,128,127,128,0
4743,130,128,127,129,129,128,128,129,0
4746,128,127,127,125,129,127,127,128,0
4748,128,125,125,127,126,128,126,127,0
4751,122,129,129,128,127,128,128,128,0
4757,124,128,128,129,125,128,128,129,0
4760,131,128,127,128,128,128,127,127,0
4763,128,128,128,128,127,127,127,127,0
4766,122,128,129,127,128,128,127,126,0
4769,124,125,130,123,129,128,127,128,0
4771,130,129,128,129,129,127,128,127,0
4774,128,125,125,126,130,127,128,128,0
4777,127,125,126,127,126,127,126,128,0
4782,128,129,128,127,127,128,127,128,0
4785,129,129,129,128,128,127,127,128,0
4788,126,127,128,126,125,128,128,127,0
4791,122,127,128,128,126,127,127,126,0
4794,123,128,127,128,129,128,127,127,0
4797,130,128,127,127,129,127,129,128,0
4801,125,125,127,127,126,127,126,127,0
4805,128,125,129,129,127,128,127,127,0
4808,124,128,128,127,127,127,126,128,0
4811,133,129,128,127,128,127,127,127,0
4814,129,127,127,128,126,129,127,127,0
4819,129,127,130,127,124,128,127,128,0
4822,121,128,130,128,127,127,127,128,0
4825,133,129,126,127,129,128,129,129,0
4829,129,127,127,128,127,127,128,127,0
4833,122,128,129,127,127,128,127,127,0
4837,123,125,126,126,130,128,127,128,0
4843,133,130,130,127,131,128,129,128,0
4847,131,127,125,127,130,128,128,128,0
4850,129,128,131,127,127,129,126,127,0
4855,128,127,126,128,129,128,129,128,0
4858,130,129,125,127,127,127,128,128,0
4861,129,128,127,127,124,126,128,127,0
4864,123,128,128,130,126,127,126,125,0
4867,123,129,129,130,124,127,128,127,0
4875,132,128,127,126,125,128,127,127,0
4872,133,129,127,124,128,128,128,128,0
4878,128,128,130,128,125,128,128,128,0
4881,128,126,126,125,128,127,128,128,0
4886,131,129,126,126,127,128,129,128,0
4889,129,127,125,128,122,127,126,127,0
4892,123,128,129,129,127,127,127,125,0
4896,122,129,129,128,126,128,128,128,0
4898,133,129,126,128,128,128,131,127,0
4901,127,127,127,127,129,128,129,128,0
4905,129,125,126,125,128,130,129,129,0
4908,126,127,127,127,127,128,126,128,0
4911,130,129,127,127,127,127,128,127,0
4914,128,129,131,128,126,127,127,127,0
4917,129,127,126,127,128,127,127,127,0
4920,122,126,128,128,126,128,127,127,0
4923,124,130,129,128,127,127,127,128,0
4926,125,128,127,127,126,128,128,129,0
4930,129,126,125,124,127,127,127,125,0
4934,128,127,128,125,129,127,128,128,0
4941,130,129,128,128,129,127,128,128,0
4944,132,129,128,127,127,127,127,128,0
4950,126,126,127,128,126,127,127,127,0
4956,121,128,127,128,127,128,127,127,0
4959,124,128,128,127,128,128,128,129,0
4961,131,128,125,126,127,128,129,128,0
4964,128,125,126,127,127,127,127,126,0
4969,128,126,126,126,128,128,128,128,0
4972,129,127,126,127,128,128,128,129,0
4975,131,129,126,127,126,128,128,129,0
4978,126,126,128,126,126,127,127,127,0
4982,121,127,129,126,123,127,126,126,0
4985,123,129,128,128,127,128,126,127,0
4987,125,129,128,126,126,127,126,127,0
4993,132,126,129,123,128,128,128,128,0
4996,128,127,128,125,129,128,128,128,0
5000,130,128,127,127,128,127,126,127,0
5003,130,129,127,125,128,128,128,128,0
5007,129,126,127,129,128,128,128,128,0
5010,126,125,128,128,127,128,126,126,0
5013,122,129,128,129,123,128,128,128,0
5016,133,129,128,127,128,127,128,128,0
5019,129,128,127,127,127,127,126,127,0
5022,129,127,128,129,126,128,126,126,0
5025,123,126,127,126,129,128,126,128,0
5028,132,130,132,128,127,127,126,127,0
5031,128,128,128,127,125,128,127,128,0
5035,125,126,129,127,128,127,128,127,0
5038,127,127,127,128,129,128,128,129,0
5041,131,129,129,129,125,127,127,127,0
5045,127,128,129,130,127,127,127,126,0
5047,122,127,128,129,127,128,127,126,0
5050,123,126,126,127,127,128,128,129,0
5053,131,128,127,127,128,127,127,127,0
5058,130,126,129,128,128,127,127,125,0
5064,125,125,126,126,128,130,128,127,0
5067,122,126,129,127,129,128,128,128,0
5071,131,129,126,128,128,128,128,129,0
5075,131,127,126,128,127,128,127,128,0
5078,125,128,128,128,126,127,127,127,0
5082,122,129,130,130,127,128,127,127,0
5086,130,129,127,126,132,128,129,128,0
5089,131,127,126,127,128,129,127,127,0
5092,130,126,126,130,127,126,128,128,0
5095,129,127,127,128,129,127,127,127,0
5098,131,129,128,128,126,128,129,128,0
5100,130,124,128,129,128,128,127,126,0
5105,123,129,129,128,127,127,127,126,0
5108,124,128,128,128,128,128,126,128,0
5111,131,129,129,126,129,128,128,128,0
5115,131,127,127,128,129,128,129,127,0
5118,130,127,131,129,124,127,127,126,0
5122,127,127,130,126,129,129,129,128,0
5125,129,127,128,126,128,128,129,129,0
5128,129,127,126,128,126,127,127,127,0
5130,128,128,126,129,126,127,127,127,0
5134,129,125,127,128,128,128,128,128,0
5145,122,128,129,129,127,128,127,126,0
5141,128,127,126,127,129,128,129,129,0
5148,123,129,128,129,128,128,126,126,0
5151,123,128,127,126,129,128,127,129,0
5154,132,129,127,126,128,127,128,129,0
5158,131,128,127,127,128,127,127,127,0
5161,130,126,130,128,129,127,128,128,0
5166,125,125,126,128,130,128,128,128,0
5171,129,127,126,126,129,128,129,129,0
5177,129,127,126,127,126,127,129,129,0
5180,127,126,127,129,129,128,129,127,0
5183,128,127,128,128,125,128,128,128,0
5185,129,129,129,128,127,128,128,128,0
5188,124,130,129,129,126,127,127,128,0
5191,125,126,127,128,127,127,129,128,0
5194,129,125,125,125,129,130,129,129,0
5197,131,129,124,125,130,128,129,129,0
5200,130,128,126,127,127,130,127,128,0
5203,131,126,129,128,125,127,127,125,0
5206,125,126,125,127,126,127,128,128,0
5209,128,128,129,128,127,128,128,127,0
5211,131,129,129,129,129,127,128,128,0
5215,122,128,129,129,127,128,127,124,0
5218,123,129,128,127,126,127,128,127,0
5221,123,126,129,126,127,127,127,128,0
5225,133,129,127,127,128,127,128,127,0
5228,129,127,126,128,130,129,129,128,0
5231,127,123,127,128,128,127,128,128,0
5235,129,128,127,127,127,127,127,129,0
5238,132,130,128,129,129,128,129,128,0
5243,129,125,126,128,124,127,126,126,0
5248,127,127,130,127,129,127,127,129,0
5251,123,127,127,127,125,127,127,128,0
5255,130,129,126,128,127,127,126,127,0
5259,130,127,129,128,127,127,127,126,0
5262,123,128,128,128,126,127,126,126,0
5265,123,128,127,128,129,128,127,128,0
5271,130,129,127,127,128,127,127,128,0
5276,129,128,129,128,126,126,127,127,0
5281,123,126,126,126,128,130,130,128,0
5285,130,127,127,125,129,128,128,129,0
5291,130,129,128,126,128,128,128,129,0
5295,129,126,125,127,126,127,127,128,0
5300,127,128,128,128,129,128,127,127,0
5303,127,126,128,128,130,128,129,128,0
5306,128,128,127,129,128,127,127,128,0
5309,126,127,127,126,129,128,127,128,0
5313,127,126,126,128,127,127,128,126,0
5316,122,128,128,129,127,128,128,127,0
5319,124,130,128,128,127,127,127,127,0
5322,133,129,130,127,129,127,127,127,0
5326,128,126,128,128,125,126,128,127,0
5329,125,127,126,126,129,128,130,129,0
5332,132,129,126,127,127,128,128,128,0
5335,131,127,127,127,126,127,127,126,0
5338,120,126,129,128,127,127,127,126,0
5341,122,128,130,129,126,126,127,128,0
5345,130,129,128,125,128,128,127,128,0
5350,130,128,126,128,131,128,129,128,0
5354,131,126,127,128,126,127,129,127,0
5357,128,126,128,127,128,128,129,129,0
5359,131,127,126,128,126,127,127,128,0
5362,129,129,129,128,126,127,126,128,0
5365,128,124,127,126,128,128,129,128,0
5369,127,123,128,127,128,128,126,126,0
5372,124,129,128,126,128,128,129,129,0
5375,131,128,126,127,128,127,126,128,0
5378,128,125,128,128,129,127,126,126,0
5382,122,128,128,129,126,127,127,129,0
5393,132,128,127,127,127,128,127,129,0
5388,132,128,127,126,129,128,128,128,0
5397,121,124,130,127,128,128,127,128,0
5403,127,125,126,125,128,128,129,129,0
5408,130,127,126,127,126,127,127,128,0
5411,131,127,126,127,127,127,126,127,0
5414,127,128,128,128,127,127,129,126,0
5417,123,129,129,128,127,127,126,126,0
5420,124,129,127,127,127,128,128,129,0
5422,132,128,126,127,128,127,127,127,0
5425,130,126,129,126,130,127,127,128,0
5427,127,126,126,126,128,127,127,127,0
5431,128,128,128,126,130,127,128,128,0
5434,132,128,127,127,127,128,128,129,0
5437,130,125,125,128,126,128,126,125,0
5443,124,128,128,127,127,127,127,127,0
5447,123,129,128,128,129,127,126,128,0
5449,132,129,129,126,129,128,128,128,0
5452,129,128,130,128,129,128,128,128,0
5456,124,126,126,128,129,128,127,128,0
5459,125,128,127,126,129,128,129,128,0
5462,129,127,129,126,127,127,127,128,0
5465,129,128,129,129,128,127,127,125,0
5468,124,128,130,128,127,128,127,126,0
5472,122,129,129,129,127,127,128,129,0
5475,131,129,129,128,130,128,128,128,0
5477,130,128,127,128,130,128,129,128,0
5480,129,125,125,127,127,128,128,128,0
5483,130,128,127,128,125,127,127,127,0
5486,129,129,128,127,129,127,128,126,0
5489,127,128,128,126,130,127,128,127,0
5492,121,128,128,128,127,128,127,126,0
5495,122,128,129,128,125,128,128,129,0
5500,131,129,127,126,128,128,129,130,0
5505,128,128,127,128,128,128,126,127,0
5509,129,127,126,128,132,127,127,128,0
5512,128,125,125,128,127,128,128,129,0
5515,131,128,127,128,127,127,128,128,0
5517,129,127,127,128,128,127,127,126,0
5520,124,128,127,130,126,127,126,126,0
5523,121,128,129,129,127,127,127,128,0
5526,132,128,127,127,127,127,127,127,0
5529,129,128,130,126,129,127,127,128,0
5532,127,126,129,128,129,126,127,127,0
5535,126,127,130,129,128,127,127,127,0
5537,129,129,131,128,128,127,127,127,0
5540,128,128,128,128,126,127,127,126,0
5544,122,128,127,129,127,127,126,126,0
5547,121,129,128,129,127,127,127,127,0
5550,130,129,127,126,127,127,126,126,0
5553,131,128,128,127,127,127,126,127,0
5556,129,127,128,127,128,127,127,127,0
5559,127,125,128,127,128,127,126,128,0
5562,130,129,129,128,128,127,128,129,0
5566,132,128,128,127,126,127,127,127,0
5569,128,126,126,128,127,127,127,127,0
5576,128,124,125,128,125,127,126,127,0
5579,129,129,129,128,128,126,128,127,0
5582,127,128,129,128,128,127,128,127,0
5586,122,129,129,129,129,128,127,124,0
5589,122,129,128,129,127,127,128,129,0
5591,130,128,127,125,129,128,128,128,0
5595,131,128,126,127,127,128,126,127,0
5598,130,128,130,128,128,127,127,128,0
5603,127,126,125,125,128,128,128,128,0
5607,127,127,126,127,126,127,127,128,0
5612,129,128,128,127,129,127,128,127,0
5617,126,126,129,129,126,127,127,127,0
5621,122,127,128,128,127,128,126,127,0
5624,123,124,128,128,128,127,126,128,0
5629,130,129,130,127,132,127,128,128,0
5632,128,126,125,126,128,127,129,128,0
5636,128,124,125,126,128,128,128,128,0
5639,128,126,127,128,129,127,127,128,0
5642,130,127,126,128,129,128,127,128,0
5645,128,128,128,128,125,128,128,127,0
5648,130,126,129,129,126,127,126,126,0
5652,122,129,128,129,128,127,127,128,0
5656,124,130,127,127,127,128,128,128,0
5659,133,129,130,126,128,127,127,126,0
5662,129,127,126,125,128,128,127,128,0
5665,130,127,127,128,127,127,127,129,0
5668,132,128,129,128,125,127,126,128,0
5670,129,127,129,128,128,128,128,127,0
5673,127,126,127,129,127,128,127,127,0
5676,127,127,129,128,129,127,127,128,0
5679,128,128,128,128,129,128,127,127,0
5682,125,129,127,129,127,127,127,127,0
5684,122,129,128,128,128,127,127,126,0
5687,123,129,128,129,127,128,127,127,0
5689,132,128,127,125,132,128,129,128,0
5692,129,127,126,127,129,128,129,128,0
5695,129,126,126,127,126,127,127,127,0
5697,126,126,129,127,129,128,128,128,0
5700,131,128,126,127,126,128,130,129,0
5705,128,127,126,127,127,128,130,128,0
5708,130,127,128,127,128,127,128,126,0
5713,128,127,128,126,129,128,129,129,0
5718,126,128,126,128,130,128,129,128,0
5722,127,126,129,129,127,127,128,125,0
5727,124,129,128,130,127,127,127,126,0
5730,122,127,128,127,128,127,129,128,0
5733,131,129,129,128,129,128,128,129,0
5737,131,128,128,128,126,127,127,128,0
5739,123,128,129,127,129,127,130,128,0
5742,128,125,125,127,128,128,126,128,0
5746,131,129,128,127,128,127,126,128,0
5748,127,129,128,127,126,126,127,128,0
5751,127,127,126,128,128,127,127,126,0
5754,121,128,128,129,126,127,127,127,0
5757,130,129,128,127,129,128,130,128,0
5760,132,129,126,127,127,128,127,128,0
5763,127,128,128,128,126,126,127,127,0
5766,127,126,127,128,129,127,128,128,0
5769,126,128,127,129,127,128,129,129,0
5772,130,126,127,128,125,127,127,128,0
5775,128,125,127,125,129,127,128,126,0
5779,122,128,128,129,127,128,128,127,0
5782,123,130,128,127,128,128,128,128,0
5784,131,129,130,126,128,127,128,127,0
5787,127,126,129,128,129,127,129,127,0
5790,126,126,128,128,126,127,128,128,0
5792,131,127,126,127,127,127,128,128,0
5795,130,128,128,128,128,126,127,128,0
5798,130,124,128,128,127,127,127,126,0
5801,123,129,130,128,126,127,127,127,0
5805,130,128,127,126,129,129,128,129,0
5808,131,128,127,127,127,127,126,127,0
5817,131,126,129,126,127,127,126,125,0
5822,126,125,125,125,128,128,129,128,0
5826,128,127,128,127,126,127,128,129,0
5829,131,129,128,128,125,127,126,127,0
5833,128,129,129,130,127,128,127,126,0
5836,122,128,128,128,126,128,127,126,0
5839,122,127,128,128,129,128,127,128,0
5842,132,128,127,127,129,128,127,128,0
5847,130,128,130,126,129,127,128,125,0
5851,123,128,128,126,123,128,127,128,0
5854,128,127,126,127,128,128,127,128,0
5857,129,129,128,128,124,127,127,128,0
5860,130,127,126,128,124,128,130,127,0
5863,123,128,127,129,127,127,127,128,0
5866,123,128,128,128,126,128,127,128,0
5869,132,129,128,125,128,127,128,128,0
5880,130,127,129,128,130,127,128,127,0
5884,129,126,128,128,128,127,127,127,0
5887,129,127,126,126,128,128,129,129,0
5891,131,128,126,126,127,128,129,129,0
5894,130,127,126,128,128,126,126,126,0
5898,127,127,129,128,125,127,127,126,0
5902,123,128,128,128,126,127,128,127,0
5906,124,130,128,128,126,128,127,127,0
5909,131,128,130,127,129,127,129,127,0
5913,123,126,127,129,128,127,127,127,0
5916,122,124,128,128,130,127,127,128,0
5919,132,128,128,127,129,128,128,128,0
5923,131,127,129,127,130,128,128,128,0
5928,128,127,126,127,126,128,127,128,0
5932,127,125,126,127,126,127,128,129,0
5936,130,128,127,128,125,128,128,127,0
5941,131,128,126,128,128,128,129,127,0
5949,123,128,128,129,127,128,127,126,0
5955,122,127,128,128,127,127,127,128,0
5959,133,128,126,127,129,128,128,127,0
5964,132,129,126,125,128,127,125,127,0
5966,130,125,129,128,128,126,127,129,0
5969,127,126,126,128,129,128,129,129,0
5972,130,128,126,127,127,127,128,129,0
5975,128,128,126,127,126,128,128,128,0
5978,128,126,127,128,126,127,127,127,0
5982,126,128,127,126,129,128,128,127,0
5989,128,128,128,127,129,129,127,128,0
5993,130,129,128,128,126,128,129,128,0
5997,120,128,129,129,127,128,127,124,0
6000,122,130,129,128,126,128,127,129,0
6004,131,127,126,127,128,128,127,128,0
6007,132,128,130,128,127,128,127,128,0
6010,128,126,128,128,129,128,131,127,0
6014,121,127,128,128,125,127,127,129,0
6017,129,128,127,127,128,128,128,129,0
6021,133,128,127,128,129,127,127,128,0
6024,126,127,128,129,131,128,129,128,0
6030,123,125,128,129,126,126,126,127,0
6034,122,127,127,126,128,128,129,128,0
6037,132,129,126,127,128,128,127,128,0
6040,131,127,127,127,126,127,127,128,0
6044,126,125,125,128,129,127,127,128,0
6047,126,128,128,126,129,128,128,130,0
6050,129,127,126,128,128,128,127,128,0
6054,128,129,129,129,126,128,127,126,0
6066,122,129,129,129,126,128,127,127,0
6069,123,128,128,127,129,127,125,129,0
6073,134,129,127,125,128,127,127,127,0
6076,130,127,126,128,129,127,128,128,0
6079,130,126,126,127,131,127,129,129,0
6082,128,127,128,127,128,127,126,128,0
6086,130,127,127,127,129,128,128,129,0
6089,126,126,127,129,126,128,127,126,0
6092,122,128,129,129,127,127,127,126,0
6095,122,124,130,126,129,127,128,127,0
6105,131,130,129,126,129,128,128,128,0
6108,130,126,125,125,129,128,129,128,0
6110,128,127,126,128,126,128,129,128,0
6114,128,126,127,127,129,128,129,130,0
6117,129,128,127,128,125,126,128,128,0
6121,130,128,129,128,128,127,127,126,0
6124,122,128,128,129,126,127,127,126,0
6127,122,129,128,128,128,127,127,128,0
6130,130,129,128,126,129,127,127,128,0
6134,129,127,127,128,130,128,129,128,0
6137,130,125,125,128,127,128,129,128,0
6140,123,127,127,128,127,128,127,128,0
6145,129,128,127,126,131,127,127,128,0
6148,128,128,128,128,128,127,127,127,0
6151,126,126,128,126,129,127,126,126,0
6154,121,129,130,129,127,128,127,127,0
6158,124,129,128,128,125,128,127,128,0
6162,130,129,127,126,129,128,128,128,0
6165,129,127,128,129,127,128,127,126,0
6176,126,127,128,128,130,127,128,128,0
6179,130,127,126,127,128,128,129,129,0
6185,128,128,126,128,128,127,127,127,0
6188,126,124,127,129,126,127,127,126,0
6194,123,128,129,129,126,126,128,126,0
6199,132,130,129,127,129,128,127,128,0
6203,131,127,126,128,126,127,129,128,0
6206,131,127,129,127,128,127,128,126,0
6213,126,125,127,130,123,128,128,128,0
6217,130,128,126,127,129,128,129,129,0
6221,129,128,127,127,126,127,130,127,0
6224,123,127,128,129,128,128,126,126,0
6227,122,128,130,129,126,127,126,128,0
6230,131,129,127,126,132,128,128,129,0
6234,131,127,125,127,129,128,127,128,0
6237,130,128,128,128,125,127,127,128,0
6245,126,125,128,127,129,128,127,128,0
6248,127,128,128,126,130,128,128,127,0
6252,130,128,127,126,128,128,126,127,0
6255,129,128,128,127,127,128,127,126,0
6258,122,128,128,128,127,127,127,127,0
6261,130,128,126,125,128,128,128,128,0
6265,130,129,128,129,129,128,128,127,0
6268,129,128,126,128,131,126,127,128,0
6281,127,126,126,128,123,128,129,129,0
6285,128,127,126,127,128,127,127,128,0
6288,131,129,129,127,128,127,127,127,0
6291,127,127,128,129,129,127,129,127,0
6296,124,128,128,128,127,128,127,127,0
6299,123,127,126,128,130,128,128,129,0
6302,132,127,126,127,127,128,128,127,0
6305,130,129,129,126,128,128,128,128,0
6316,128,127,126,127,128,127,129,127,0
6320,130,126,127,127,127,127,127,128,0
6323,130,129,128,128,125,127,126,127,0
6328,128,128,129,129,128,128,127,126,0
6333,123,129,128,128,128,127,127,126,0
6337,123,128,128,128,129,128,127,128,0
6340,131,128,126,128,130,127,128,128,0
6343,132,128,126,125,126,127,128,127,0
6346,128,127,128,128,128,127,126,128,0
6349,126,127,125,125,129,128,128,128,0
6359,128,128,127,127,128,127,129,129,0
6362,128,126,126,127,127,128,128,128,0
6366,128,126,126,128,127,128,127,127,0
6369,120,127,129,129,129,128,128,129,0
6373,128,128,127,128,130,128,127,128,0
6376,131,126,126,127,127,127,127,127,0
6379,123,128,130,128,127,128,126,125,0
6382,121,129,129,129,127,128,127,127,0
6385,125,129,130,128,128,128,127,128,0
6389,129,128,129,127,129,128,128,127,0
6392,127,128,128,128,127,127,127,126,0
6395,123,129,129,128,126,126,130,128,0
6398,131,129,126,128,129,127,127,128,0
6401,131,127,131,126,127,127,126,127,0
6413,128,128,127,128,128,126,130,128,0
6417,128,126,126,127,126,127,128,129,0
6421,131,128,126,126,129,128,129,129,0
6424,131,126,127,126,129,127,129,125,0
6427,126,126,126,127,127,127,127,127,0
6430,119,129,129,128,127,127,127,126,0
6434,130,129,127,127,128,128,126,127,0
6437,132,129,128,127,127,127,126,128,0
6448,127,126,126,128,127,128,127,128,0
6452,121,129,128,129,127,127,126,127,0
6457,123,129,127,126,129,129,128,129,0
6462,132,127,126,127,126,128,127,128,0
6465,130,127,131,128,126,127,127,127,0
6468,122,125,126,127,126,126,127,128,0
6472,131,129,129,128,130,127,128,127,0
6475,128,128,128,126,127,128,127,128,0
6478,131,126,126,128,129,127,127,126,0
6481,124,129,128,129,126,127,128,127,0
6485,123,130,128,128,129,128,129,129,0
6489,131,127,126,127,129,128,129,128,0
6492,132,126,126,127,125,130,126,127,0
6495,129,127,130,129,125,127,127,127,0
6499,123,129,128,128,127,128,129,129,0
6502,132,130,128,125,128,128,129,128,0
6507,130,126,123,125,132,129,129,128,0
6509,125,125,126,127,126,127,128,128,0
6512,127,128,130,128,129,127,127,128,0
6524,130,129,130,129,128,127,127,128,0
6527,124,127,128,129,127,126,127,128,0
6530,128,124,128,129,127,127,126,126,0
6534,121,129,128,129,126,127,127,128,0
6537,133,128,127,127,128,127,127,128,0
6540,128,129,129,128,124,127,128,128,0
6543,128,125,125,126,128,128,128,128,0
6546,128,126,127,126,129,128,129,128,0
6550,131,129,126,127,127,128,129,128,0
6553,129,127,126,126,129,128,129,126,0
6565,122,128,129,128,127,127,127,126,0
6569,123,130,129,129,128,128,127,129,0
6572,132,128,129,128,130,128,128,128,0
6575,130,126,128,128,129,127,127,127,0
6580,126,126,131,129,129,126,130,127,0
6585,131,125,125,125,130,128,129,129,0
6588,131,128,126,127,125,128,128,129,0
6591,129,126,126,127,126,128,127,127,0
6594,129,127,128,129,127,128,127,127,0
6598,122,129,129,128,127,127,128,128,0
6601,131,128,127,126,128,127,128,129,0
6604,133,128,127,127,128,127,128,127,0
6607,129,126,127,128,129,127,129,128,0
6610,130,126,125,126,128,128,129,129,0
6614,130,128,127,127,126,127,128,128,0
6617,130,128,128,126,129,127,127,126,0
6621,122,129,129,128,126,127,128,127,0
6624,122,127,128,128,131,128,129,129,0
6628,131,127,126,128,129,128,128,129,0
6638,130,127,127,126,127,127,128,128,0
6642,130,127,127,128,123,127,127,125,0
6646,119,127,129,129,126,128,127,127,0
6650,124,128,128,127,128,128,127,128,0
6653,132,128,128,129,128,128,128,128,0
6657,124,124,126,127,126,127,126,126,0
6660,128,126,127,128,131,127,126,127,0
6664,130,129,128,127,129,126,128,128,0
6674,132,126,126,126,129,126,127,127,0
6678,122,127,127,129,126,128,126,126,0
6681,121,128,128,129,127,128,127,129,0
6684,131,128,126,125,128,128,128,128,0
6688,132,128,129,128,128,127,127,128,0
6691,131,127,129,128,129,129,129,128,0
6694,126,125,125,127,127,128,127,129,0
6697,129,128,127,128,127,128,127,128,0
6710,130,128,127,128,125,128,127,127,0
6714,123,127,128,128,127,127,127,125,0
6717,122,127,127,128,125,127,127,128,0
6721,132,129,127,127,128,128,127,128,0
6724,132,128,129,128,127,128,126,127,0
6728,130,126,128,128,126,127,127,128,0
6731,126,126,126,125,129,128,130,129,0
6735,127,128,125,127,127,128,129,129,0
6738,130,128,126,128,126,127,126,127,0
6741,122,124,128,127,127,128,127,125,0
6744,122,127,127,129,127,127,127,127,0
6748,124,128,126,127,128,128,127,128,0
6751,132,129,128,127,129,128,126,128,0
6760,130,128,129,128,129,127,128,128,0
6765,129,126,127,127,126,127,127,127,0
6768,127,128,128,126,129,127,129,129,0
6772,131,127,127,128,127,128,128,128,0
6775,128,125,126,127,127,126,128,128,0
6784,123,126,128,128,127,127,126,127,0
6789,127,128,129,129,129,127,128,128,0
6793,131,128,128,127,128,128,128,128,0
6796,121,130,128,128,128,128,126,124,0
6800,122,130,129,128,127,128,127,127,0
6803,127,127,126,125,128,128,127,128,0
6807,130,128,127,127,130,128,129,128,0
6810,130,128,126,127,127,130,128,128,0
6814,127,125,125,127,129,127,126,127,0
6817,129,128,129,126,128,127,128,128,0
6820,130,129,126,126,130,126,127,127,0
6823,129,128,128,127,127,127,127,127,0
6826,128,127,127,127,125,128,127,126,0
6830,121,128,127,128,126,128,126,127,0
6833,125,130,129,128,129,128,128,128,0
6838,131,127,125,126,127,127,128,128,0
6844,128,125,126,127,126,128,129,128,0
6848,124,127,128,128,128,127,128,128,0
6851,128,129,127,127,129,128,129,128,0
6854,129,127,127,129,127,127,128,126,0
6857,124,130,128,129,128,129,127,125,0
6860,121,127,126,127,128,130,131,130,0
6866,132,127,125,127,129,128,128,128,0
6870,130,127,126,126,127,128,128,128,0
6873,128,127,127,125,127,127,126,127,0
6876,126,127,128,127,127,127,126,127,0
6880,128,129,129,127,127,127,127,127,0
6882,129,127,127,128,129,127,129,128,0
6885,127,125,127,128,126,127,130,127,0
6888,122,128,128,128,127,127,127,127,0
6902,124,125,128,126,129,127,127,127,0
6907,131,128,126,126,128,128,128,128,0
6910,129,125,125,127,127,129,129,128,0
6913,127,125,125,125,128,128,128,127,0
6917,131,129,130,129,128,128,128,128,0
6921,126,128,127,126,129,127,129,126,0
6925,122,129,130,129,128,128,126,125,0
6929,123,127,128,129,124,127,127,129,0
6939,130,129,127,127,128,128,128,129,0
6943,132,128,127,128,129,126,126,128,0
6947,129,127,126,125,127,128,128,128,0
6950,127,126,128,127,129,128,127,128,0
6957,128,128,129,129,128,128,128,128,0
6960,130,128,128,126,123,128,127,128,0
6965,130,128,127,127,126,127,127,126,0
6970,123,129,128,128,128,127,127,127,0
6974,124,129,128,128,129,128,128,128,0
6977,131,128,127,127,127,127,127,127,0
6980,128,128,127,127,128,127,130,127,0
6984,128,125,125,128,125,127,127,127,0
6987,129,128,128,127,128,128,128,128,0
6990,127,129,130,128,125,128,128,128,0
6994,128,126,127,128,128,127,129,128,0
6997,130,127,128,129,126,128,127,126,0
7000,123,128,129,129,126,127,127,128,0
7003,133,130,128,126,129,128,128,128,0
7007,131,127,126,127,129,128,129,128,0
7013,127,126,127,127,128,128,128,129,0
7016,123,128,129,128,127,127,127,128,0
7019,131,128,128,128,128,127,126,128,0
7022,130,127,126,126,130,128,129,127,0
7025,122,127,128,129,127,128,128,127,0
7029,122,128,130,129,128,127,127,129,0
7032,131,128,126,127,128,128,129,128,0
7036,130,127,126,127,127,127,126,127,0
7039,126,128,128,128,129,128,127,128,0
7042,125,127,126,127,128,128,129,129,0
7100,130,129,128,127,129,127,130,128,0
7108,127,128,128,129,126,127,127,125,0
7119,123,128,128,129,127,127,127,126,0
7123,124,127,127,127,128,128,128,128,0
7128,131,129,127,127,131,128,128,128,0
7132,130,128,126,125,129,128,128,128,0
7166,129,126,128,128,128,127,126,127,0
7174,129,127,128,128,125,127,125,127,0
7182,130,129,131,128,129,127,127,128,0
7190,126,126,127,128,128,127,129,126,0
7195,122,129,128,129,126,127,127,126,0
7237,122,129,128,128,125,127,127,129,0
7253,131,129,127,126,129,128,127,128,0
7260,130,127,126,128,129,127,127,127,0
7304,126,127,126,126,127,128,127,128,0
7314,127,128,130,128,129,127,127,127,0
7324,129,129,127,126,130,128,128,129,0
7332,129,128,126,126,129,127,128,127,0
7337,126,125,127,128,129,127,129,127,0
7370,123,129,129,128,126,127,126,127,0
7378,124,130,129,129,126,128,127,128,0
7387,132,130,130,128,130,128,128,128,0
7394,123,126,130,126,129,127,128,128,0
7398,126,125,125,127,127,127,127,128,0
7439,129,129,128,126,130,128,128,128,0
7449,129,127,127,128,129,127,128,126,0
7469,123,128,128,129,127,127,127,127,0
7481,122,128,128,128,127,127,126,127,0
7490,130,127,129,128,131,128,128,128,0
7495,132,126,126,127,129,128,127,128,0
7501,131,127,127,127,127,127,126,127,0
7505,129,126,128,128,128,128,126,128,0
7510,128,129,128,127,128,127,127,128,0
7513,128,128,126,127,128,128,129,129,0
7517,124,127,129,129,126,127,127,126,0
7526,129,128,128,128,128,127,128,129,0
7521,122,127,129,128,126,127,127,127,0
7530,131,128,126,127,126,127,128,128,0
7533,129,125,127,127,123,127,126,128,0
7536,127,127,129,129,128,128,128,128,0
7539,129,126,126,127,127,127,126,129,0
7543,130,129,129,128,126,127,129,127,0
7546,124,130,128,129,127,127,126,126,0
7549,123,127,127,129,125,127,126,127,0
7552,125,128,127,128,129,127,129,129,0
7556,134,128,126,127,129,128,127,127,0
7559,130,128,129,127,128,129,129,127,0
7562,123,126,126,127,130,128,127,127,0
7566,128,129,129,128,129,127,128,128,0
7569,127,129,125,127,128,128,128,128,0
7572,129,127,128,128,126,128,126,127,0
7575,123,128,128,129,126,127,126,127,0
7579,124,130,129,128,125,128,127,128,0
7581,132,130,128,126,129,127,127,127,0
7584,130,128,129,127,129,128,129,128,0
7589,130,125,126,128,129,128,128,128,0
7593,129,127,125,127,128,128,128,129,0
7595,129,129,128,128,127,127,128,128,0
7598,128,125,127,128,128,128,127,128,0
7600,130,125,127,126,128,127,128,128,0
7604,126,127,126,127,129,128,128,128,0
7609,130,128,126,127,126,128,129,127,0
7613,123,129,128,128,127,128,127,124,0
7617,123,130,129,129,127,128,127,127,0
7623,129,128,129,127,129,128,128,128,0
7626,130,129,127,128,129,127,128,128,0
7632,130,128,125,127,128,128,126,125,0
7637,124,126,127,128,129,128,127,127,0
7641,127,127,126,127,127,127,126,127,0
7644,129,128,129,128,128,127,127,127,0
7647,128,128,130,128,128,128,128,127,0
7650,123,129,128,129,127,127,126,126,0
7655,132,128,126,125,130,128,128,128,0
7652,123,129,128,128,127,127,130,129,0
7659,132,128,127,127,128,127,127,127,0
7708,129,126,128,127,128,126,128,128,0
7717,127,126,127,128,127,127,128,129,0
7725,130,128,126,127,127,127,128,128,0
7733,130,127,127,128,126,127,126,127,0
7739,121,126,125,128,127,128,128,126,0
7745,120,128,128,129,125,127,127,128,0
7750,124,129,129,127,129,128,128,129,0
7766,130,127,128,127,126,127,127,127,0
7754,131,127,126,128,129,128,129,128,0
7770,121,129,129,128,126,127,127,127,0
7777,132,128,127,127,127,126,128,128,0
7781,132,128,126,127,128,128,127,128,0
7785,123,125,127,128,125,127,128,128,0
7789,127,124,127,126,130,129,129,128,0
7793,129,128,126,128,128,128,127,129,0
7796,131,128,127,128,125,126,127,127,0
7800,122,129,128,128,127,127,126,126,0
7803,123,128,129,128,127,127,127,129,0
7806,131,129,126,126,128,129,130,129,0
7810,133,129,128,127,128,128,128,128,0
7814,130,127,126,125,127,130,129,128,0
7819,128,126,126,127,127,128,126,128,0
7822,130,128,128,128,129,127,127,128,0
7825,130,127,126,128,126,127,129,128,0
7828,130,127,129,129,126,128,128,127,0
7832,123,128,127,129,127,127,126,126,0
7835,129,128,126,128,129,128,128,129,0
7838,132,127,126,127,128,128,129,128,0
7841,130,126,125,127,127,127,126,127,0
7845,127,127,128,128,127,128,126,127,0
7848,129,128,129,128,128,128,128,128,0
7851,129,128,127,128,126,128,128,127,0
7855,128,128,128,128,124,128,128,127,0
7858,121,128,128,129,126,127,127,126,0
7861,122,128,128,129,129,127,127,128,0
7864,132,129,129,127,127,127,127,128,0
7867,129,127,127,128,131,126,126,127,0
7870,127,125,128,128,129,128,130,127,0
7874,122,128,129,130,126,126,128,129,0
7878,132,128,126,126,127,127,128,128,0
7881,129,126,125,128,128,128,129,125,0
7884,121,125,126,127,128,127,128,128,0
7886,126,125,128,128,129,128,127,127,0
7890,128,129,128,126,128,129,127,127,0
7894,129,129,128,128,126,127,127,127,0
7898,128,128,126,127,128,127,127,127,0
7901,123,128,129,128,127,128,126,128,0
7905,123,127,128,127,129,128,128,127,0
7909,132,127,126,126,129,128,129,125,0
7912,124,129,129,126,129,127,126,127,0
7915,126,127,130,128,129,127,128,128,0
7920,129,128,126,126,127,128,127,127,0
7925,130,129,129,128,129,127,127,128,0
7930,128,128,128,129,127,127,128,127,0
7934,122,128,128,128,127,128,127,128,0
7937,130,128,127,127,130,129,129,128,0
7940,131,127,125,126,129,128,129,128,0
7943,127,126,130,128,125,127,126,126,0
7947,122,126,129,126,126,127,126,127,0
7949,130,129,129,126,129,127,128,128,0
7952,130,128,131,128,127,126,127,126,0
7976,126,126,127,128,127,127,127,126,0
7981,121,130,128,129,127,127,128,126,0
7985,124,126,128,128,129,128,127,128,0
7989,130,128,128,128,127,128,127,127,0
7993,128,127,129,128,129,127,128,127,0
8010,124,125,128,128,126,127,126,128,0
8015,129,129,127,126,129,127,128,128,0
8021,131,129,126,127,126,128,129,129,0
8026,124,126,127,127,125,127,128,126,0
8031,120,129,129,129,126,127,127,127,0
8035,122,128,128,127,128,128,127,128,0
8038,132,129,127,127,126,128,129,128,0
8042,129,126,128,128,126,127,128,127,0
8045,122,128,127,128,124,128,128,129,0
8048,131,126,125,127,129,128,128,129,0
8052,131,128,125,126,128,127,127,128,0
8063,129,128,126,128,129,127,130,127,0
8067,130,125,130,128,126,128,126,128,0
8072,131,128,129,127,127,128,126,128,0
8077,131,128,129,128,127,128,126,128,0
8082,126,127,128,128,129,127,129,127,0
8087,121,129,129,129,127,128,127,127,0
8090,123,125,129,127,126,127,127,128,0
8094,130,129,127,127,127,128,129,129,0
8097,130,126,126,128,127,128,127,126,0
8100,122,128,129,129,127,128,127,126,0
8103,124,130,129,127,126,128,127,129,0
8106,133,128,129,127,130,128,128,128,0
8109,130,127,125,127,126,128,128,128,0
8113,128,125,126,126,129,128,127,127,0
8116,130,128,127,126,127,128,128,129,0
8119,131,128,127,127,127,127,127,128,0
8122,129,127,126,127,128,127,128,125,0
8126,121,127,128,129,126,128,127,127,0
8129,122,127,128,129,127,127,127,128,0
8132,130,128,128,128,128,128,128,128,0
8135,130,128,129,127,129,128,127,128,0
8138,129,126,126,128,127,127,128,128,0
8141,127,125,126,127,126,128,128,129,0
8144,130,128,129,128,126,127,126,127,0
8148,129,128,128,130,128,127,128,126,0
8151,123,129,129,129,128,128,127,127,0
8155,123,127,127,128,128,128,128,129,0
8158,132,128,126,127,128,127,127,128,0
8162,130,128,129,129,128,127,128,125,0
8165,129,125,125,124,128,130,127,127,0
8169,126,128,131,127,128,127,127,128,0
8172,130,129,129,127,124,127,127,128,0
8175,129,125,126,127,127,128,127,126,0
8179,123,129,129,129,127,127,127,125,0
8184,123,129,128,128,128,127,128,128,0
8188,132,129,128,128,129,128,127,128,0
8192,131,128,126,127,128,128,128,128,0
8196,131,127,127,127,128,127,127,128,0
8199,126,126,126,126,128,128,129,128,0
8202,129,129,127,128,127,126,127,127,0
8205,129,128,128,129,128,127,127,127,0
8207,130,128,128,126,128,128,128,128,0
8210,121,124,127,128,129,127,127,128,0
8215,131,128,126,127,127,128,127,128,0
8217,129,127,128,128,127,128,127,126,0
8220,125,129,129,129,127,127,127,126,0
8223,122,129,127,126,127,127,127,128,0
8226,133,129,128,125,128,128,128,128,0
8228,133,129,130,127,132,127,128,128,0
8231,130,126,125,127,128,128,128,128,0
8235,127,125,127,127,127,128,126,128,0
8238,129,129,129,127,128,127,126,128,0
8240,129,128,128,129,129,127,128,128,0
8243,129,125,126,128,127,127,127,127,0
8247,128,126,126,128,127,127,128,128,0
8249,129,128,127,127,125,127,126,128,0
8252,126,128,129,126,127,127,127,126,0
8255,123,130,129,129,127,127,126,125,0
8259,123,127,128,129,125,127,127,128,0
8262,130,128,128,126,129,128,127,128,0
8265,133,128,127,127,126,128,127,127,0
8268,131,128,131,128,127,127,127,128,0
8270,128,124,126,127,128,127,126,127,0
8274,128,127,128,128,127,128,127,128,0
8276,130,128,127,126,129,127,127,127,0
8280,125,125,128,129,126,128,127,126,0
8284,123,127,128,129,126,127,127,127,0
8289,124,127,127,127,128,128,128,129,0
8293,132,129,127,127,127,128,127,127,0
8297,129,128,128,128,129,128,127,128,0
8300,126,125,125,128,128,128,128,128,0
8303,127,127,126,128,129,128,128,129,0
8307,131,128,127,127,126,128,127,127,0
8309,122,129,128,129,126,127,127,126,0
8312,123,128,128,129,127,128,128,127,0
8316,124,126,128,127,129,128,128,128,0
8319,132,129,128,126,128,128,128,129,0
8324,130,127,126,127,128,126,126,127,0
8326,129,128,130,128,127,126,127,128,0
8329,128,128,129,125,129,127,127,128,0
8332,131,129,128,126,128,128,130,128,0
8335,129,127,126,129,128,127,128,128,0
8339,128,125,126,128,126,127,126,126,0
8342,121,128,129,129,125,127,127,128,0
8345,132,128,128,127,128,128,127,128,0
8348,130,128,126,127,128,128,128,128,0
8352,128,127,126,128,127,128,128,127,0
8355,128,128,129,128,127,128,126,127,0
8360,129,129,128,126,128,128,128,128,0
8367,126,127,126,128,126,128,127,126,0
8373,125,128,128,129,127,128,127,126,0
8379,122,129,128,129,126,127,127,129,0
8382,131,129,127,127,130,128,128,129,0
8386,131,127,125,125,129,128,128,128,0
8390,128,126,126,127,127,126,126,127,0
8393,126,125,131,128,128,127,127,128,0
8398,129,129,128,127,130,127,128,129,0
8405,128,126,126,128,127,128,128,128,0
8409,130,126,127,128,124,128,128,128,0
8412,128,125,128,125,130,129,128,128,0
8415,131,129,129,128,129,128,128,128,0
8419,127,128,129,128,128,127,128,125,0
8422,123,130,129,128,128,128,127,126,0
8425,122,129,129,128,128,127,126,128,0
8428,129,130,127,125,127,128,130,128,0
8432,133,129,128,128,127,126,126,128,0
8434,128,127,130,126,128,127,126,127,0
8438,127,126,127,128,128,128,127,129,0
8440,129,128,127,126,129,127,128,128,0
8444,130,127,126,126,129,128,128,128,0
8448,130,125,126,128,129,126,127,127,0
8451,127,126,127,127,128,128,128,129,0
8456,127,129,126,127,127,127,126,129,0
8458,130,128,129,129,126,127,128,127,0
8461,122,129,130,128,127,127,129,126,0
8464,123,128,127,129,127,128,127,129,0
8467,132,128,127,127,131,128,128,128,0
8471,131,128,126,125,128,128,127,128,0
8475,129,129,130,129,127,127,126,126,0
8478,126,127,129,127,130,128,129,128,0
8481,127,128,126,128,129,128,126,127,0
8484,130,128,129,127,126,127,126,128,0
8487,128,128,128,128,128,128,127,126,0
8491,122,129,128,127,127,128,126,126,0
8495,124,126,131,126,129,128,127,127,0
8498,130,129,127,127,128,127,126,127,0
8503,129,127,127,126,127,127,126,127,0
8508,127,127,130,128,126,127,127,128,0
8512,129,127,126,127,129,128,128,129,0
8515,130,127,126,126,126,128,127,128,0
8519,129,127,126,128,127,127,128,128,0
8522,122,127,127,128,128,126,127,129,0
8525,120,128,128,130,125,127,127,127,0
8528,124,129,129,129,127,127,128,128,0
8531,123,129,127,127,127,128,127,126,0
8535,124,123,128,127,129,128,127,128,0
8538,131,128,129,127,129,128,129,128,0
8541,130,128,127,124,129,128,130,129,0
8544,131,127,127,127,128,127,127,127,0
8547,128,125,128,126,125,127,127,126,0
8550,126,126,128,128,125,128,126,128,0
8553,130,129,126,128,127,127,127,128,0
8557,128,128,130,129,125,127,126,127,0
8560,128,124,127,129,127,127,127,127,0
8563,122,127,128,127,127,129,127,127,0
8566,130,129,127,127,129,128,129,128,0
8569,130,127,125,127,129,128,131,128,0
8572,128,125,126,127,129,128,129,129,0
8576,126,125,125,127,128,127,127,128,0
8580,130,128,127,128,128,128,129,129,0
8583,131,128,127,127,125,128,128,128,0
8585,127,126,127,127,129,128,126,127,0
8589,123,128,129,129,126,127,127,127,0
8592,124,130,128,127,128,128,128,128,0
8595,131,128,128,127,128,127,128,127,0
8599,131,126,126,126,128,129,128,128,0
8603,127,125,126,128,128,128,129,129,0
8608,127,128,126,127,127,127,127,127,0
8612,130,129,128,128,127,127,126,125,0
8615,121,128,129,130,127,127,127,126,0
8618,122,128,127,128,123,127,128,128,0
8621,131,129,127,127,129,128,128,128,0
8624,130,128,125,125,129,129,128,128,0
8627,128,125,126,127,125,130,127,128,0
8630,123,127,130,127,128,128,128,129,0
8632,129,128,125,129,128,128,128,129,0
8636,129,127,125,127,128,126,126,126,0
8639,122,129,127,128,127,128,127,126,0
8642,122,128,128,128,127,127,127,129,0
8645,130,129,129,128,129,128,127,128,0
8649,133,129,126,128,131,128,129,128,0
8652,131,126,127,128,129,128,129,129,0
8656,126,125,125,127,126,128,127,128,0
8659,129,128,128,128,127,128,127,128,0
8663,129,129,128,126,129,127,129,127,0
8669,127,127,128,129,126,128,126,127,0
8675,121,127,129,129,126,127,128,127,0
8679,124,129,130,128,128,127,128,128,0
8683,130,129,127,124,129,128,128,127,0
8687,131,128,130,128,128,127,127,127,0
8691,127,125,126,127,127,128,127,128,0
8695,129,128,127,127,126,127,127,128,0
8699,132,129,129,128,127,126,127,127,0
8702,129,128,128,128,127,127,127,128,0
8706,128,127,129,129,126,128,127,126,0
8709,122,129,129,128,128,128,127,127,0
8713,126,129,127,126,127,127,127,127,0
8717,129,128,127,127,126,127,127,126,0
8725,121,127,128,128,127,126,126,126,0
8732,129,127,127,125,133,129,129,128,0
8738,131,128,126,128,127,128,128,128,0
8742,130,127,126,127,129,128,129,128,0
8745,125,127,127,127,127,127,129,128,0
8748,119,128,129,129,127,127,127,127,0
8753,123,130,129,129,127,128,127,127,0
8756,124,128,127,129,125,128,128,127,0
8760,131,126,126,128,131,128,129,128,0
8765,129,127,126,126,127,128,128,128,0
8768,132,130,130,128,129,127,127,128,0
8771,129,127,128,128,129,127,126,126,0
8774,126,128,130,129,127,127,128,127,0
8777,129,127,128,128,125,128,126,127,0
8781,129,129,127,128,129,128,128,128,0
8784,129,126,127,126,128,128,129,127,0
8788,125,127,127,129,126,128,128,125,0
8791,122,129,128,129,127,128,126,128,0
8795,131,129,129,126,130,128,129,128,0
8797,130,128,126,126,127,127,127,127,0
8800,127,126,127,128,127,127,127,127,0
8803,129,128,128,128,126,127,126,128,0
8806,130,129,127,127,127,128,129,128,0
8809,128,129,126,128,126,127,129,128,0
8812,127,122,129,128,128,128,127,126,0
8816,122,129,128,128,126,127,126,127,0
8818,131,129,129,128,130,128,128,128,0
8823,130,128,126,127,129,128,129,129,0
8826,123,127,130,126,128,127,127,128,0
8830,119,124,129,129,128,128,127,129,0
8835,131,127,127,128,129,127,128,129,0
8839,131,127,126,129,129,127,128,127,0
8844,129,127,128,129,128,127,127,126,0
8849,122,128,128,129,126,127,127,127,0
8853,129,128,127,126,129,128,128,128,0
8855,132,128,127,126,124,127,127,128,0
8858,128,124,129,128,129,127,127,125,0
8861,120,124,129,128,129,127,128,129,0
8866,130,128,128,126,129,127,126,128,0
8869,128,128,125,128,128,128,127,128,0
8874,129,126,130,130,128,127,127,126,0
8877,122,129,127,126,129,128,127,126,0
8879,133,129,127,124,129,128,128,128,0
8884,132,129,129,128,130,128,128,128,0
8887,130,127,126,126,126,128,128,127,0
8891,127,125,127,128,128,128,129,129,0
8896,130,128,126,127,128,128,129,129,0
8899,131,129,128,128,125,127,129,128,0
8902,126,126,126,128,126,127,128,126,0
8904,123,129,130,128,126,127,127,126,0
8907,124,129,128,127,127,128,127,128,0
8911,131,128,126,127,131,130,129,128,0
8915,130,127,125,126,126,127,128,129,0
8919,128,126,127,128,125,127,127,128,0
8922,129,128,128,127,127,127,126,127,0
8925,128,128,129,127,128,127,128,127,0
8928,129,127,126,126,127,128,128,126,0
8931,121,128,129,129,127,127,128,127,0
8934,123,127,127,127,128,128,126,128,0
8937,132,130,128,127,126,128,128,128,0
8940,130,128,128,127,127,127,127,125,0
8947,122,127,127,128,129,127,127,127,0
8952,127,126,127,126,129,128,128,129,0
8955,127,127,126,126,128,127,128,127,0
8959,131,127,130,129,126,127,128,128,0
8963,128,126,128,128,129,128,127,125,0
8968,122,130,126,129,127,128,127,127,0
8971,124,127,126,127,128,127,128,128,0
8975,131,128,127,127,125,126,127,127,0
8978,129,127,128,128,129,127,128,127,0
8982,128,127,128,127,125,128,125,128,0
8989,130,129,129,128,125,127,126,128,0
8992,122,129,129,129,127,127,127,126,0
8996,123,129,127,129,124,127,127,127,0
8999,127,126,129,128,128,128,127,128,0
9003,132,129,128,127,130,127,128,129,0
9006,127,129,128,128,126,128,129,128,0
9009,125,125,126,128,128,128,127,127,0
9013,122,124,127,126,126,128,126,128,0
9017,132,128,129,128,127,127,127,128,0
9019,130,129,128,129,124,127,127,128,0
9024,123,127,128,128,128,128,127,127,0
9027,121,129,127,127,128,127,127,127,0
9030,130,128,126,127,128,128,126,127,0
9033,132,128,129,127,129,128,129,128,0
9036,131,126,128,129,126,127,126,127,0
9040,122,126,127,129,126,128,127,128,0
9043,131,128,126,128,129,128,129,129,0
9046,132,128,125,126,128,128,128,127,0
9051,122,126,128,128,128,127,126,127,0
9055,125,127,129,128,126,127,126,127,0
9058,129,129,128,128,124,128,126,128,0
9061,132,128,128,127,127,127,130,126,0
9066,123,129,129,128,126,127,126,126,0
9072,122,127,128,128,127,127,126,128,0
9079,131,128,127,125,128,128,128,127,0
9082,132,128,127,128,127,127,127,128,0
9085,129,128,129,128,129,128,128,129,0
9088,125,125,127,127,130,128,129,128,0
9092,129,128,127,127,127,128,126,128,0
9095,129,128,126,126,129,128,130,128,0
9098,128,127,128,128,123,128,126,128,0
9102,120,128,128,129,127,127,128,127,0
9105,123,129,127,128,129,128,129,129,0
9108,132,128,126,127,128,128,127,127,0
9112,131,128,129,128,126,127,127,127,0
9115,127,127,128,127,127,127,127,127,0
9118,128,128,128,127,126,127,126,128,0
9120,132,129,129,127,128,127,127,127,0
9124,128,128,127,129,125,127,127,126,0
9128,121,129,129,129,127,127,127,125,0
9131,124,125,126,125,129,128,128,129,0
9136,132,129,127,127,129,127,128,127,0
9139,128,126,126,128,128,127,128,125,0
9141,122,129,128,128,127,128,127,126,0
9144,122,126,125,124,129,128,131,129,0
9147,132,128,126,125,128,127,127,128,0
9151,131,128,129,126,128,127,127,127,0
9155,129,125,126,127,129,128,129,128,0
9158,127,127,127,125,129,128,128,128,0
9161,130,127,127,127,128,128,129,128,0
9164,124,127,127,128,128,127,127,127,0
9170,126,126,128,128,124,128,128,128,0
9175,126,127,126,129,125,127,128,128,0
9178,129,129,127,127,129,126,128,127,0
9182,129,128,129,129,127,128,127,124,0
9187,123,130,127,128,127,127,127,126,0
9190,122,129,128,128,124,128,128,129,0
9195,131,129,126,129,127,127,130,129,0
9198,132,127,127,126,128,128,127,128,0
9200,128,127,130,128,126,127,128,127,0
9204,120,126,126,127,127,128,128,129,0
9207,130,128,127,127,127,128,126,128,0
9210,129,128,128,128,127,127,128,128,0
9214,126,127,129,128,128,127,127,125,0
9218,121,127,128,126,129,127,128,129,0
9221,131,129,126,127,128,128,129,128,0
9224,129,125,128,129,126,128,127,126,0
9227,122,128,129,129,126,127,126,125,0
9229,122,126,127,128,125,128,129,128,0
9232,131,129,127,126,129,128,127,128,0
9235,130,129,130,128,129,128,130,128,0
9237,129,126,125,126,127,130,127,128,0
9241,127,126,127,127,126,127,128,129,0
9244,130,129,128,127,128,127,127,127,0
9247,126,127,127,129,128,128,127,127,0
9250,126,128,126,127,125,127,127,128,0
9253,126,126,129,127,124,127,126,128,0
9256,128,127,126,128,127,127,127,128,0
9259,131,127,128,127,125,127,128,127,0
9263,122,128,129,128,127,127,127,125,0
9270,122,127,129,129,128,127,127,127,0
9274,125,125,130,126,128,127,127,128,0
9277,133,128,126,125,128,128,130,129,0
9282,130,126,125,126,125,128,127,127,0
9286,126,127,127,127,127,127,129,128,0
9291,127,129,128,126,130,127,129,129,0
9294,130,128,126,129,127,127,127,126,0
9297,123,128,127,129,126,128,127,126,0
9300,123,127,128,127,127,127,128,129,0
9304,131,129,129,127,130,128,127,128,0
9307,132,128,127,128,128,128,126,128,0
9311,128,128,130,128,129,127,128,127,0
9314,125,125,126,128,126,128,128,128,0
9316,129,128,126,127,126,127,127,128,0
9319,132,128,129,128,127,127,126,127,0
9322,129,128,127,127,127,128,127,127,0
9326,128,127,129,129,126,127,127,127,0
9329,122,128,128,129,127,128,127,128,0
9331,132,129,127,127,129,130,129,128,0
9335,131,126,125,126,127,127,127,128,0
9338,130,127,127,128,127,127,126,127,0
9341,129,126,127,127,130,128,127,128,0
9344,132,128,127,127,127,128,129,127,0
9347,123,130,129,128,126,127,127,126,0
9350,122,128,129,129,127,128,127,128,0
9354,129,128,130,128,129,128,127,128,0
9357,130,129,127,128,130,128,128,128,0
9361,131,127,125,128,126,128,128,129,0
9363,128,126,126,128,127,127,128,128,0
9366,127,128,125,125,129,128,129,129,0
9369,131,128,126,127,128,128,129,129,0
9372,125,126,126,127,127,127,128,128,0
9375,130,126,126,128,126,127,127,127,0
9378,122,129,128,130,126,127,128,128,0
9382,124,130,129,128,127,127,127,126,0
9388,125,127,126,126,128,127,130,128,0
9394,130,127,126,127,127,127,127,127,0
9398,128,128,128,126,129,128,127,128,0
9401,132,129,128,127,128,128,127,127,0
9404,129,128,128,128,129,128,129,125,0
9407,120,125,129,128,129,127,127,128,0
9409,125,128,129,128,129,127,128,129,0
9413,131,128,126,127,127,127,127,128,0
9416,130,128,128,129,124,128,127,125,0
9420,125,129,128,129,126,127,126,125,0
9423,122,129,128,128,127,128,128,127,0
9427,125,128,127,127,129,128,128,128,0
9431,131,128,126,125,128,128,127,128,0
9434,119,128,129,127,129,128,128,127,0
9438,123,125,128,127,128,127,127,128,0
9441,131,128,125,127,129,128,129,129,0
9449,131,128,126,127,126,127,130,127,0
9452,127,127,130,128,127,127,127,128,0
9457,124,127,128,128,127,127,126,127,0
9460,128,130,128,127,126,127,127,128,0
9464,130,129,129,128,126,126,129,126,0
9468,123,129,128,128,127,127,128,126,0
9471,122,128,128,128,127,127,127,128,0
9475,125,130,129,126,129,128,127,128,0
9478,130,129,126,127,128,127,126,127,0
9481,128,128,127,126,128,127,127,125,0
9485,120,127,130,126,128,128,127,127,0
9488,130,128,127,125,132,128,129,128,0
9492,131,127,126,127,127,128,128,128,0
9500,129,127,126,127,127,127,128,127,0
9506,129,125,127,128,126,127,128,127,0
9513,128,129,129,128,128,128,128,129,0
9517,127,127,130,130,127,128,127,126,0
9521,123,130,130,128,128,128,127,126,0
9524,122,128,128,128,126,126,126,128,0
9527,128,129,129,128,128,126,127,128,0
9531,132,129,127,127,129,129,128,128,0
9534,131,127,127,127,126,127,126,127,0
9538,127,125,130,126,129,127,127,128,0
9541,127,127,125,126,129,128,129,129,0
9544,131,127,125,128,126,128,128,128,0
9547,128,125,127,128,129,128,128,128,0
9551,120,128,128,129,126,127,127,126,0
9554,123,128,128,128,129,128,127,128,0
9557,130,129,128,128,130,128,127,128,0
9561,130,126,126,126,127,127,127,127,0
9564,127,126,128,126,127,127,127,127,0
9568,127,127,126,126,129,128,129,129,0
9577,124,126,128,129,126,127,127,126,0
9582,124,129,128,128,127,127,127,126,0
9586,122,128,127,128,126,127,126,128,0
9589,124,128,127,125,131,130,128,129,0
9593,134,129,129,126,129,128,128,128,0
9596,131,129,127,127,128,127,130,128,0
9600,130,125,126,127,127,127,127,127,0
9604,127,128,131,128,127,127,126,128,0
9607,128,129,127,126,129,128,128,128,0
9610,129,126,126,127,126,126,128,128,0
9614,130,124,128,127,127,127,127,126,0
9618,122,129,128,129,127,128,126,128,0
9622,131,129,127,127,127,128,128,128,0
9627,131,129,129,126,129,128,127,128,0
9631,127,126,126,127,130,127,131,127,0
9636,121,128,129,128,126,127,126,128,0
9639,132,129,128,126,130,128,127,128,0
9642,129,127,126,127,126,127,127,127,0
9645,129,127,127,128,123,127,128,127,0
9649,128,127,126,126,128,128,127,129,0
9652,130,128,125,127,127,127,126,127,0
9655,129,129,128,126,129,127,127,127,0
9658,121,129,129,129,126,127,126,126,0
9662,121,129,129,128,127,127,127,126,0
9665,124,127,126,125,128,127,127,128,0
9668,133,127,127,127,128,127,126,127,0
9672,129,127,128,127,125,127,127,127,0
9675,124,125,128,128,127,128,126,128,0
9679,129,130,129,128,127,128,127,127,0
9682,128,128,129,126,127,127,129,128,0
9685,124,127,127,128,126,128,126,125,0
9688,120,128,128,129,126,127,127,127,0
9691,123,130,129,128,128,128,127,128,0
9695,131,128,127,127,128,127,128,127,0
9698,130,126,125,127,129,127,127,128,0
9701,123,125,125,127,126,128,129,129,0
9705,130,128,129,128,128,127,127,127,0
9708,128,129,128,126,128,129,127,126,0
9711,122,128,128,129,126,127,128,127,0
9716,121,128,129,127,127,128,127,126,0
9757,124,127,127,128,129,128,127,128,0
9766,132,129,128,126,128,127,127,128,0
9771,128,125,128,128,126,127,126,127,0
9779,127,126,129,128,129,127,128,128,0
9783,130,128,127,127,125,127,127,128,0
9787,129,129,128,127,128,127,128,127,0
9790,126,127,130,128,125,127,128,128,0
9794,126,126,127,128,124,128,127,128,0
9797,125,128,128,128,128,128,128,128,0
9801,128,127,127,126,130,127,126,128,0
9804,130,128,128,129,128,128,128,127,0
9807,122,128,128,128,125,128,127,126,0
9810,124,129,128,127,129,127,126,128,0
9815,134,129,128,128,128,127,126,127,0
9818,132,127,126,125,131,128,128,128,0
9821,128,126,125,128,127,127,127,128,0
9827,127,128,129,126,128,127,127,127,0
9830,130,129,130,128,128,127,128,127,0
9833,126,128,127,127,127,128,127,127,0
9836,122,128,128,129,128,128,127,127,0
9840,121,128,129,128,125,128,128,128,0
9843,131,129,126,127,129,128,128,128,0
9846,130,126,126,127,126,128,126,127,0
9849,127,125,130,128,127,127,126,127,0
9853,126,127,127,128,127,127,127,128,0
9856,129,130,129,129,127,128,126,127,0
9859,130,127,126,127,126,127,127,125,0
9863,123,128,128,128,126,127,127,126,0
9870,132,129,128,126,128,128,128,127,0
9866,122,129,128,129,125,128,128,127,0
9875,130,127,126,127,128,128,128,127,0
9879,128,127,128,126,127,127,128,127,0
9883,129,126,126,127,126,128,128,128,0
9885,130,128,127,129,125,127,126,128,0
9890,129,127,129,127,123,127,127,127,0
9897,122,129,129,129,126,128,127,126,0
9902,122,128,128,129,125,128,127,128,0
9906,132,130,128,127,128,128,126,127,0
9909,129,128,126,125,128,128,128,129,0
9912,128,125,126,127,127,128,128,126,0
9916,119,128,129,128,128,128,127,128,0
9918,130,129,126,127,126,127,127,127,0
9921,129,128,129,128,127,127,127,127,0
9924,128,125,126,126,128,128,127,127,0
9927,121,127,127,129,126,127,127,127,0
9931,123,127,127,128,130,127,128,128,0
9935,131,127,127,125,130,128,129,128,0
9939,124,126,129,127,126,127,127,126,0
9943,123,128,129,127,125,127,127,128,0
9947,132,129,127,126,131,128,128,128,0
9950,133,128,128,126,127,128,127,126,0
9954,130,126,127,127,127,128,127,127,0
9956,117,124,126,128,129,129,130,129,0
9960,130,129,126,127,127,128,128,128,0
9964,129,128,129,128,125,127,127,128,0
9968,128,125,129,128,126,127,127,126,0
9971,125,128,128,128,126,127,126,127,0
9975,121,128,127,127,129,129,129,129,0
9978,132,129,128,128,129,128,129,128,0
9981,129,126,126,127,128,128,129,128,0
9985,128,126,127,127,128,127,129,129,0
9988,130,127,127,127,128,127,127,128,0
9992,130,129,129,126,127,126,126,127,0
9995,128,125,126,127,128,127,127,126,0
9999,122,128,128,129,127,127,128,127,0
10004,123,128,127,126,128,128,127,127,0
10009,131,129,128,127,127,126,127,128,0
10013,128,128,129,126,127,127,127,128,0
10016,124,127,130,129,129,128,127,127,0
10019,123,128,129,128,127,127,129,129,0
10021,132,128,126,125,128,127,127,127,0
10024,129,129,130,127,125,131,127,127,0
10027,130,126,127,129,127,127,127,127,0
10030,123,129,128,128,127,128,127,128,0
10033,131,129,127,127,128,127,127,128,0
10037,130,128,130,127,128,128,127,127,0
10039,126,127,129,127,123,128,129,129,0
10042,127,127,126,127,129,128,129,129,0
10045,128,129,127,127,126,127,127,128,0
10048,129,126,126,126,129,126,127,127,0
10050,124,126,126,128,125,127,127,126,0
10055,122,129,128,130,127,127,127,127,0
10058,125,130,127,128,130,127,127,128,0
10061,130,128,129,128,130,127,127,127,0
10065,130,125,129,127,129,128,129,128,0
10068,126,126,126,126,126,127,127,128,0
10071,131,129,128,128,126,127,127,128,0
10076,128,126,128,128,126,127,126,127,0
10079,128,127,128,129,126,128,126,126,0
10082,122,128,129,129,126,127,127,127,0
10086,131,128,130,127,129,127,127,128,0
10089,130,127,126,127,128,130,127,128,0
10092,125,125,127,127,128,128,128,127,0
10096,126,126,127,126,128,127,127,128,0
10100,131,126,127,127,127,128,129,129,0
10104,122,127,127,128,129,128,127,126,0
10108,124,128,128,128,127,128,127,126,0
10114,122,128,128,129,129,127,127,128,0
10119,133,130,129,128,129,128,127,128,0
10122,130,129,129,128,129,128,129,127,0
10126,127,125,130,128,131,127,126,128,0
10129,126,126,129,127,129,127,126,127,0
10133,129,128,126,126,130,128,129,129,0
10135,129,127,127,128,127,128,128,128,0
10139,128,126,126,128,127,128,127,127,0
10142,123,129,128,129,126,127,127,127,0
10146,124,129,127,125,129,128,128,129,0
10149,133,129,127,127,128,127,126,128,0
10152,128,127,128,128,128,127,127,127,0
10155,120,125,127,126,124,128,128,129,0
10158,129,127,126,126,128,128,128,129,0
10162,129,127,126,128,127,128,127,128,0
10165,129,124,128,128,128,128,126,124,0
10168,124,128,129,129,126,127,127,128,0
10171,130,129,128,125,129,128,128,128,0
10176,131,128,126,127,131,128,128,129,0
10179,130,126,125,129,126,127,126,127,0
10182,123,127,128,128,125,127,128,128,0
10186,130,128,126,127,129,128,128,129,0
10188,131,129,127,128,127,127,129,128,0
10191,128,125,126,128,125,127,126,126,0
10194,128,126,127,128,126,127,127,128,0
10198,129,128,127,127,126,128,127,127,0
10202,131,129,129,128,126,128,126,127,0
10205,127,127,127,128,125,128,129,127,0
10208,129,126,127,128,125,128,127,125,0
10211,123,130,129,128,127,127,126,127,0
10215,125,130,128,126,129,128,129,128,0
10221,130,126,126,128,129,127,128,128,0
10225,127,125,126,127,126,128,127,127,0
10228,123,130,129,129,127,126,128,129,0
10230,133,129,128,128,129,127,127,128,0
10234,129,128,127,127,126,126,125,127,0
10237,128,127,129,128,131,127,127,128,0
10240,128,127,126,126,130,128,128,129,0
10243,131,128,128,126,128,128,128,129,0
10246,124,125,127,128,126,127,127,126,0
10249,122,128,129,129,127,127,127,126,0
10252,123,129,129,127,128,127,127,127,0
10255,130,129,129,127,129,128,127,127,0
10258,131,128,129,128,129,127,128,127,0
10261,129,126,126,128,129,127,129,128,0
10265,130,127,126,127,127,127,126,128,0
10268,132,128,127,127,127,126,127,128,0
10272,130,127,127,128,127,127,127,129,0
10274,119,129,129,130,127,128,126,127,0
10278,122,129,128,127,129,128,128,128,0
10280,131,129,129,126,129,128,127,127,0
10283,130,127,130,128,128,127,127,127,0
10286,129,127,129,126,128,127,128,127,0
10289,127,126,125,129,126,127,127,128,0
10292,129,129,129,127,128,128,128,127,0
10295,128,129,129,128,127,126,127,127,0
10300,128,127,126,127,126,127,127,126,0
10303,120,129,129,129,126,127,127,126,0
10306,130,129,127,127,133,128,128,128,0
10309,131,128,125,127,126,128,129,127,0
10313,131,127,128,128,127,128,127,127,0
10318,126,127,127,129,129,128,130,128,0
10322,132,128,126,126,126,128,127,128,0
10324,130,128,129,128,130,127,127,126,0
10327,123,128,128,129,127,127,127,126,0
10331,122,128,130,128,125,128,128,128,0
10334,131,128,126,127,129,128,128,129,0
10338,132,128,125,125,127,128,129,128,0
10341,127,126,126,127,127,129,128,127,0
10345,126,125,127,128,129,128,129,129,0
10349,129,128,126,128,129,128,129,129,0
10352,130,127,126,127,128,127,127,126,0
10355,123,128,128,129,127,128,127,126,0
10358,122,128,127,129,127,127,128,128,0
10361,130,128,129,127,129,128,128,129,0
10365,132,129,128,128,128,127,128,127,0
10367,132,127,126,128,129,128,129,128,0
10370,126,125,127,128,126,127,127,127,0
10374,129,128,128,127,129,128,128,128,0
10376,127,128,127,127,129,128,128,128,0
10379,128,126,126,129,124,127,127,127,0
10382,126,127,129,126,124,128,127,126,0
10386,127,128,128,128,129,128,129,129,0
10391,130,127,127,128,129,127,127,127,0
10394,125,129,129,128,128,128,127,126,0
10397,122,128,127,127,128,127,126,127,0
10400,127,127,126,128,129,128,128,129,0
10404,131,128,127,127,132,128,128,128,0
10407,130,126,126,127,129,127,129,128,0
10411,124,126,125,127,127,127,127,127,0
10414,123,129,128,128,124,128,127,129,0
10417,132,128,127,127,128,128,127,128,0
10423,128,127,128,126,126,127,126,126,0
10428,129,127,128,128,127,128,127,128,0
10431,128,128,128,128,129,127,128,129,0
10434,131,128,126,127,127,128,127,127,0
10437,125,129,130,129,126,127,126,125,0
10440,123,128,128,128,127,127,127,125,0
10444,123,126,125,128,130,130,130,129,0
10447,132,128,126,125,129,128,127,128,0
10450,129,128,127,125,131,128,129,128,0
10453,127,126,126,128,127,128,127,129,0
10457,129,127,127,126,128,128,128,129,0
10460,131,126,127,126,129,127,128,128,0
10463,130,127,126,127,126,127,127,127,0
10466,125,127,127,128,124,127,126,127,0
10468,121,129,130,129,126,127,127,128,0
10471,125,130,128,126,127,127,127,128,0
10474,130,128,127,127,129,128,129,128,0
10480,128,126,126,128,125,128,128,128,0
10483,129,126,128,126,129,127,127,128,0
10486,129,128,127,129,129,128,128,128,0
10489,127,128,128,129,127,128,128,126,0
10492,123,128,128,129,127,128,127,126,0
10494,123,129,129,128,126,128,126,127,0
10497,132,130,128,128,128,128,127,127,0
10500,132,128,127,125,129,128,128,127,0
10503,129,126,125,125,127,128,128,128,0
10506,129,126,128,128,128,128,127,128,0
10509,129,128,129,127,129,127,127,128,0
10513,128,127,127,127,128,128,128,128,0
10515,130,125,127,129,127,128,126,125,0
10519,122,129,128,128,127,127,127,127,0
10523,123,126,129,126,128,128,127,128,0
10529,132,128,129,127,129,128,129,128,0
10533,130,126,125,127,126,127,127,126,0
10536,118,126,128,128,126,127,125,128,0
10540,129,129,129,127,127,128,126,128,0
10543,127,128,129,128,125,127,127,127,0
10546,128,126,129,129,127,127,127,125,0
10549,122,128,128,128,127,127,127,129,0
10551,131,129,128,128,129,128,128,128,0
10556,131,128,127,128,127,127,128,128,0
10559,131,126,127,127,128,127,127,127,0
10562,127,127,130,128,127,128,128,128,0
10565,127,127,127,128,128,128,129,129,0
10568,131,126,126,127,127,128,129,127,0
10571,122,129,129,128,128,129,127,124,0
10574,123,128,128,129,127,128,127,128,0
10577,130,127,127,127,129,129,128,128,0
10579,130,128,127,126,128,128,130,128,0
10582,130,126,125,127,126,128,128,128,0
10585,126,126,127,128,126,127,127,128,0
10589,130,127,128,128,128,127,127,128,0
10592,130,128,126,126,130,127,128,128,0
10595,125,126,129,129,126,128,127,125,0
10598,122,127,129,129,126,128,127,127,0
10601,124,127,126,125,129,128,126,128,0
10604,130,130,130,127,128,127,128,128,0
10607,130,126,126,128,126,128,128,128,0
10610,122,127,129,128,125,127,126,127,0
10614,126,126,127,128,128,128,129,128,0
10618,132,128,128,127,128,129,128,128,0
10624,129,127,129,128,127,128,127,127,0
10627,125,127,128,129,125,128,127,127,0
10633,123,128,129,129,126,127,126,128,0
10637,124,130,130,128,130,127,127,128,0
10642,129,128,129,128,129,128,126,126,0
10646,131,128,128,129,126,128,128,127,0
10650,123,129,127,126,129,128,128,128,0
10654,132,128,126,126,130,128,128,128,0
10657,130,128,126,127,127,127,127,126,0
10659,130,128,128,128,126,127,129,128,0
10662,128,127,127,128,126,128,127,128,0
10665,130,129,129,129,129,127,126,127,0
10668,128,127,125,127,127,128,128,127,0
10671,123,129,128,129,128,128,127,124,0
10675,122,128,128,128,126,126,126,128,0
10679,132,129,128,126,128,127,126,128,0
10682,130,128,128,127,125,128,128,126,0
10684,130,127,129,128,127,127,127,128,0
10687,127,127,127,127,130,128,129,128,0
10690,129,127,126,126,128,128,129,128,0
10693,127,126,125,128,124,127,126,127,0
10696,122,128,129,129,127,128,127,126,0
10699,122,129,129,127,126,127,127,128,0
10702,132,129,127,127,129,128,127,128,0
10705,132,128,126,125,128,128,127,128,0
10708,128,126,127,127,127,127,126,127,0
10711,126,127,130,128,128,127,127,128,0
10714,130,128,127,130,127,128,128,128,0
10718,129,127,128,127,127,127,128,127,0
10722,122,127,129,128,127,127,126,127,0
10725,120,125,128,128,124,128,130,129,0
10728,132,129,130,128,129,127,127,128,0
10731,131,128,126,126,128,128,128,128,0
10736,129,127,127,128,126,127,129,128,0
10742,127,127,127,127,126,127,127,127,0
10747,128,130,130,128,126,127,127,128,0
10751,130,128,129,128,126,127,126,128,0
10753,128,125,126,128,125,127,128,126,0
10757,122,128,129,129,126,127,127,127,0
10760,124,128,128,129,126,127,129,129,0
10762,133,129,126,128,130,128,129,128,0
10765,131,127,127,127,127,127,126,126,0
10768,127,127,129,127,128,128,129,128,0
10771,128,128,127,126,128,127,130,129,0
10775,131,128,125,127,127,128,127,127,0
10778,129,127,129,128,125,127,127,127,0
10782,121,128,128,128,127,127,127,127,0
10787,124,129,129,128,124,128,128,128,0
10790,131,128,127,127,128,128,127,128,0
10794,131,127,128,128,127,127,126,127,0
10798,128,125,130,126,129,127,128,128,0
10801,127,128,126,128,129,128,129,129,0
10804,131,128,128,128,126,127,127,129,0
10807,129,127,127,128,128,127,128,128,0
10810,127,126,128,130,127,128,127,127,0
10815,122,128,128,129,126,127,128,128,0
10818,131,129,128,127,130,128,129,128,0
10821,130,127,127,127,126,127,127,128,0
10824,127,125,125,127,131,126,127,127,0
10832,126,128,128,126,127,127,127,128,0
10836,131,129,128,126,129,128,128,128,0
10840,126,127,128,127,128,127,127,127,0
10844,129,127,129,129,127,129,127,125,0
10848,121,129,130,129,126,128,127,128,0
10852,131,128,128,129,129,128,128,128,0
10856,131,127,126,128,132,128,129,128,0
10862,125,123,128,128,125,128,128,128,0
10866,128,125,125,127,131,127,128,128,0
10870,130,128,126,127,130,127,126,127,0
10873,128,128,130,126,125,126,127,127,0
10876,129,126,127,128,129,128,127,127,0
10879,127,127,127,129,126,127,127,127,0
10882,123,131,129,128,127,127,127,126,0
10885,124,129,128,127,127,128,129,126,0
10888,125,128,124,127,130,128,129,128,0
10907,129,126,125,126,129,128,131,129,0
10913,132,128,126,126,129,127,127,127,0
10915,130,128,128,128,129,127,129,127,0
10919,129,125,126,126,127,127,130,127,0
10923,126,126,126,127,129,128,129,129,0
10926,131,128,126,127,127,128,129,129,0
10930,130,127,127,128,126,127,127,126,0
10933,123,127,129,129,127,127,127,126,0
10936,122,125,130,128,127,127,126,128,0
10939,131,129,128,128,129,128,126,128,0
10942,131,127,129,128,131,128,127,128,0
10945,124,127,128,128,129,128,128,127,0
10949,122,126,126,128,127,128,128,129,0
10952,130,128,126,128,127,127,127,128,0
10957,130,128,128,128,126,127,126,127,0
10961,128,127,129,130,127,128,126,127,0
10964,122,128,128,129,127,127,127,127,0
10971,122,127,128,128,129,127,126,128,0
10975,133,129,128,128,130,128,128,128,0
10979,129,126,125,125,128,128,128,128,0
10984,124,125,126,128,129,128,129,128,0
10993,128,128,126,126,129,128,129,128,0
10997,129,126,126,127,127,127,126,128,0
11001,128,125,126,126,129,128,127,127,0
11004,126,125,127,128,128,128,128,127,0
11008,122,129,128,129,127,126,126,127,0
11011,124,126,128,127,128,127,127,127,0
11015,129,128,130,128,124,128,127,127,0
11018,125,127,127,127,129,128,128,128,0
11021,129,129,127,127,128,128,129,129,0
11024,132,128,126,127,128,128,129,127,0
11027,123,128,129,129,126,127,128,126,0
11033,123,128,129,128,127,128,128,126,0
11036,126,128,128,128,129,128,128,128,0
11039,131,128,126,126,128,127,129,129,0
11042,130,126,126,127,127,127,126,127,0
11046,128,127,127,128,129,127,129,128,0
11049,128,127,126,128,127,128,127,128,0
11052,131,129,129,128,126,127,126,128,0
11059,122,129,127,129,125,127,126,128,0
11055,129,127,129,129,127,127,126,126,0
11062,129,128,127,127,128,128,129,128,0
11069,130,129,127,125,129,128,128,129,0
11073,129,127,128,129,126,127,127,127,0
11076,124,127,128,128,127,127,126,127,0
11080,130,128,127,128,130,129,128,128,0
11083,131,129,128,127,128,128,126,127,0
11091,130,128,128,126,129,128,128,128,0
11094,127,125,128,128,128,127,126,127,0
11097,127,129,128,126,130,127,129,128,0
11101,128,129,128,128,129,127,129,128,0
11113,128,125,127,128,128,127,128,129,0
11117,124,127,128,127,128,127,128,124,0
11120,121,131,128,128,127,127,126,127,0
11124,123,129,131,129,128,128,127,127,0
11127,132,128,128,126,129,128,127,128,0
11130,128,127,126,127,125,128,127,127,0
11133,128,128,128,128,128,128,128,128,0
11137,130,128,127,128,125,128,126,126,0
11140,123,129,127,129,128,127,128,126,0
11143,124,128,129,129,127,127,127,127,0
11190,129,128,128,125,128,127,127,127,0
11197,131,129,127,128,128,128,127,128,0
11205,131,128,128,128,128,128,126,127,0
11209,130,127,126,128,131,128,129,128,0
11213,127,126,128,127,127,128,127,129,0
11216,129,128,128,129,129,128,127,128,0
11261,129,127,127,128,128,127,126,127,0
11271,128,127,126,127,125,128,128,128,0
11276,127,125,127,128,125,128,127,127,0
11281,130,128,129,128,127,128,128,129,0
11285,128,127,126,129,126,127,128,126,0
11329,123,129,127,129,126,127,127,125,0
11348,122,128,128,128,127,128,127,126,0
11355,124,125,128,128,130,129,128,129,0
11395,131,128,127,127,129,128,128,127,0
11406,128,126,125,125,128,127,128,128,0
11423,127,125,126,126,127,127,126,127,0
11429,128,128,128,128,128,127,126,128,0
11434,127,128,127,128,127,128,128,129,0
11443,128,127,127,129,125,127,127,127,0
11448,121,128,128,127,127,128,127,127,0
11452,128,128,127,128,127,128,128,129,0
11456,131,128,126,127,127,128,126,127,0
11459,128,125,125,125,128,128,129,128,0
11462,127,126,126,126,125,127,127,128,0
11466,129,129,128,126,129,127,128,129,0
11469,129,127,126,128,129,127,126,128,0
11472,128,126,127,128,129,127,128,128,0
11476,128,127,125,126,129,128,128,128,0
11479,127,128,128,129,123,126,127,128,0
11482,130,128,126,126,126,127,127,126,0
11485,124,129,129,129,126,127,127,126,0
11489,122,128,130,128,128,128,127,127,0
11492,130,127,127,126,129,129,130,129,0
11496,132,129,126,127,128,128,127,128,0
11499,130,127,130,126,129,127,128,128,0
11502,127,127,125,128,128,127,129,128,0
11505,127,127,125,127,128,128,127,127,0
11507,129,130,131,128,128,127,128,128,0
11510,127,128,127,129,123,127,127,127,0
11515,121,129,129,128,127,128,127,127,0
11520,122,129,129,127,127,127,128,128,0
11523,131,129,130,126,130,128,127,127,0
11526,130,127,125,125,129,130,128,128,0
11529,129,126,127,126,127,130,127,128,0
11532,128,127,128,127,128,128,126,128,0
11536,130,128,127,127,126,127,128,129,0
11539,122,127,128,129,126,127,126,126,0
11542,123,128,129,127,127,127,129,126,0
11545,123,123,127,128,132,128,127,128,0
11549,131,129,128,128,131,128,128,128,0
11556,130,128,127,128,128,127,128,128,0
11564,129,126,126,128,129,128,129,128,0
11567,126,126,127,128,128,127,126,128,0
11570,129,128,128,128,125,127,127,128,0
11574,129,127,126,129,127,127,128,128,0
11596,126,125,126,127,129,128,127,125,0
11601,121,128,129,128,126,127,128,127,0
11604,124,129,127,128,129,128,128,128,0
11608,132,127,125,127,127,128,129,129,0
11611,129,127,127,127,126,128,129,128,0
11667,127,126,125,127,127,128,128,129,0
11677,130,128,126,128,126,127,129,128,0
11687,130,127,127,128,129,128,128,128,0
11693,127,126,129,129,127,128,127,125,0
11698,124,128,129,129,126,127,128,128,0
11703,130,130,128,127,129,128,129,128,0
11707,131,128,126,127,127,128,127,127,0
11710,130,127,128,127,126,128,127,127,0
11717,122,127,130,126,129,127,129,128,0
11721,126,129,127,128,129,128,129,129,0
11724,131,127,126,127,126,127,128,128,0
11728,127,126,128,129,127,127,127,126,0
11731,122,128,130,129,126,127,127,127,0
11735,124,129,128,128,128,128,127,127,0
11738,130,128,127,128,130,128,129,128,0
11742,128,125,125,126,130,128,129,127,0
11745,127,125,130,125,128,128,128,128,0
11748,130,128,126,128,129,128,128,129,0
11752,125,128,128,128,125,127,129,127,0
11755,124,128,129,129,126,128,127,126,0
11763,122,128,129,128,127,128,128,127,0
11768,125,129,130,128,129,128,128,128,0
11771,132,128,128,128,128,128,128,128,0
11774,129,127,125,126,128,127,129,128,0
11777,128,127,128,127,128,127,127,128,0
11781,127,128,130,127,129,127,127,128,0
11784,129,129,126,127,128,128,129,129,0
11787,126,125,127,126,128,127,128,128,0
11791,119,128,128,129,127,127,127,126,0
11794,122,129,128,130,126,128,127,128,0
11798,133,128,128,126,129,128,128,128,0
11801,129,127,126,125,129,129,129,128,0
11805,122,127,130,128,129,129,127,127,0
11808,124,128,128,126,129,128,127,128,0
11810,131,128,126,127,128,126,127,128,0
11814,129,127,128,129,127,128,126,126,0
11816,124,128,129,129,126,127,128,126,0
11819,122,127,128,125,128,128,128,129,0
11822,131,129,126,127,126,128,127,127,0
11826,131,128,128,128,128,128,127,127,0
11828,126,127,126,129,128,128,129,127,0
11867,129,127,130,126,130,128,128,129,0
11879,130,128,125,126,127,128,129,128,0
11888,130,126,127,127,128,127,128,129,0
11892,123,129,128,129,127,128,127,127,0
11896,122,128,128,129,127,127,126,128,0
11936,130,129,126,127,129,129,128,129,0
11948,132,128,128,125,131,128,127,127,0
11955,125,126,127,128,127,128,127,127,0
11960,129,126,128,129,126,127,129,129,0
11966,131,128,126,128,127,128,126,128,0
11971,130,128,128,127,127,127,127,127,0
11975,129,126,128,128,127,127,128,126,0
11979,122,126,128,129,125,128,129,128,0
11984,130,129,127,127,127,128,128,128,0
11990,131,128,128,127,126,127,126,128,0
11993,128,127,126,128,129,127,129,127,0
11996,127,127,127,128,130,128,128,129,0
11999,129,128,126,127,128,129,129,129,0
12002,129,128,127,128,128,128,127,128,0
12006,130,125,126,128,126,128,127,126,0
12010,123,127,129,128,128,127,127,126,0
12020,123,125,130,127,129,127,126,127,0
12023,129,129,129,126,129,128,129,127,0
12027,131,128,130,128,129,128,127,128,0
12030,119,125,126,127,127,128,127,128,0
12035,128,129,128,127,127,127,126,127,0
12038,128,128,130,128,125,127,127,128,0
12041,122,130,127,129,127,127,127,125,0
12044,121,128,127,128,127,127,128,126,0
12048,123,125,126,127,129,128,129,129,0
12051,132,128,127,125,128,128,130,129,0
12054,129,128,127,126,129,127,127,127,0
12057,128,124,130,128,127,128,126,127,0
12060,130,129,129,126,128,128,128,128,0
12064,130,129,129,129,129,127,128,129,0
12067,129,126,128,129,125,127,126,126,0
12072,122,127,129,128,127,128,127,127,0
12079,122,127,127,128,128,128,127,128,0
12085,130,128,130,125,129,128,128,128,0
12088,130,127,126,127,126,127,126,127,0
12091,129,125,130,127,126,127,126,127,0
12095,127,128,126,127,126,127,127,128,0
12098,129,129,129,128,125,127,127,128,0
12101,126,126,130,129,127,127,127,127,0
12104,121,128,129,129,127,127,126,127,0
12107,129,128,125,125,129,128,128,129,0
12111,133,129,127,128,129,128,130,129,0
12114,131,126,126,127,127,127,128,128,0
12118,127,126,127,127,125,127,126,127,0
12121,129,128,129,128,127,127,127,128,0
12126,130,128,128,126,128,128,129,129,0
12129,128,125,126,128,129,127,126,127,0
12132,122,129,130,128,127,128,126,127,0
12135,123,126,126,129,128,128,127,128,0
12138,132,128,127,127,128,128,127,127,0
12141,129,128,130,126,128,127,127,127,0
12144,128,126,127,128,125,127,127,127,0
12147,124,128,129,128,126,127,126,127,0
12150,130,129,129,128,124,127,127,129,0
12153,129,125,128,129,127,127,128,127,0
12156,123,129,129,129,127,127,126,126,0
12159,124,129,129,128,125,127,127,128,0
12162,132,129,125,128,129,127,128,128,0
12167,132,128,128,127,126,127,127,127,0
12170,129,127,127,127,129,127,129,128,0
12174,129,126,125,128,129,128,129,129,0
12180,131,128,127,127,127,127,127,127,0
12187,130,128,128,128,126,127,128,127,0
12190,122,129,127,129,127,128,129,126,0
12194,122,128,128,129,128,127,126,128,0
12197,132,129,128,128,129,128,128,128,0
12201,129,127,126,126,129,128,129,128,0
12204,129,126,127,129,128,127,128,128,0
12207,128,125,126,126,128,128,129,129,0
12210,130,128,125,127,129,128,129,129,0
12214,129,128,125,128,125,127,127,127,0
12217,124,127,128,129,126,128,127,126,0
12220,121,128,128,129,126,128,128,128,0
12224,132,129,127,128,129,128,128,128,0
12228,130,128,126,127,128,128,129,128,0
12232,129,124,125,127,125,128,128,128,0
12236,127,124,126,129,126,127,126,127,0
12239,131,129,128,127,128,127,126,127,0
12243,130,129,128,128,124,127,127,127,0
12245,123,127,128,129,127,128,127,126,0
12248,122,129,128,128,127,128,126,129,0
12251,131,128,127,128,131,128,128,129,0
12258,131,128,126,126,129,128,129,128,0
12261,129,125,125,127,127,128,127,128,0
12265,126,127,128,128,126,127,127,127,0
12268,122,128,127,128,128,127,128,129,0
12271,132,128,126,125,129,128,129,128,0
12275,130,126,127,128,126,127,127,127,0
12278,126,126,129,129,125,127,126,127,0
12281,128,128,128,126,129,127,128,128,0
12284,130,127,127,128,129,127,129,128,0
12290,129,127,127,128,125,128,127,127,0
12294,125,124,129,129,127,128,127,127,0
12298,123,130,130,128,127,127,126,129,0
12301,133,129,127,127,127,128,127,127,0
12305,129,128,128,127,128,127,127,127,0
12308,128,126,126,129,128,128,129,129,0
12311,126,127,127,126,129,128,128,128,0
12316,130,127,126,127,127,128,128,128,0
12320,121,125,127,128,127,127,127,126,0
12325,123,128,129,129,127,128,127,127,0
12329,121,126,126,127,129,128,128,129,0
12333,133,129,128,127,128,127,127,127,0
12336,129,126,128,128,127,127,127,128,0
12339,129,126,128,129,127,128,127,127,0
12343,123,126,126,127,128,127,128,129,0
12346,131,129,128,128,127,128,127,127,0
12350,129,128,127,126,129,128,128,127,0
12353,127,127,129,129,127,127,127,127,0
12356,128,128,128,127,127,127,126,129,0
12359,130,129,130,129,127,127,127,128,0
12362,123,130,129,129,126,127,126,126,0
12365,123,128,129,128,128,128,127,128,0
12367,129,128,127,127,129,128,128,128,0
12370,132,129,130,126,128,127,127,127,0
12373,130,129,128,128,128,128,128,127,0
12376,129,125,126,125,128,128,128,128,0
12380,129,126,127,127,126,127,127,128,0
12382,129,129,129,128,128,128,127,128,0
12385,128,128,126,128,126,128,129,128,0
12388,123,126,126,126,128,128,129,126,0
12392,121,128,128,130,126,127,127,128,0
12398,131,128,128,128,129,127,128,128,0
12404,130,127,126,127,127,128,128,127,0
12407,130,124,128,129,126,127,127,126,0
12410,122,128,130,129,127,128,127,127,0
12413,131,129,127,127,128,128,128,127,0
12416,132,128,128,126,127,128,129,128,0
12419,131,125,126,126,127,127,126,127,0
12422,128,127,128,126,129,127,128,128,0
12426,129,128,128,127,129,127,128,128,0
12429,130,128,126,128,127,128,129,126,0
12432,123,129,130,128,126,128,127,126,0
12435,122,128,129,128,127,127,127,127,0
12438,130,129,127,126,128,127,127,128,0
12441,132,127,126,126,128,128,127,128,0
12444,131,126,127,127,126,127,127,127,0
12448,125,127,129,128,129,128,128,128,0
12451,130,129,127,127,127,128,128,128,0
12454,129,128,127,128,124,127,128,128,0
12457,128,128,129,128,124,127,126,126,0
12465,122,129,129,129,125,128,128,129,0
12461,128,123,129,130,127,127,126,127,0
12468,131,128,127,127,128,127,127,127,0
12472,131,127,128,127,127,127,127,126,0
12475,125,127,127,130,127,128,127,127,0
12478,124,129,128,129,127,129,130,128,0
12482,132,128,127,125,129,128,128,128,0
12485,131,128,127,128,129,128,129,128,0
12488,123,126,126,128,129,128,129,128,0
12491,129,127,125,126,129,129,129,129,0
12495,128,128,126,127,127,128,129,128,0
12499,128,127,128,129,127,127,128,126,0
12506,122,128,128,129,126,128,128,126,0
12509,124,127,128,125,128,128,128,128,0
12512,132,128,125,126,128,128,129,129,0
12516,130,127,128,126,127,128,127,128,0
12519,126,126,126,128,129,129,129,129,0
12522,127,128,126,128,127,128,129,129,0
12525,127,129,128,127,129,127,127,127,0
12529,125,125,127,126,129,127,128,127,0
12533,129,124,129,128,127,127,128,127,0
12536,122,128,128,128,129,128,128,128,0
12539,130,128,127,128,130,128,128,128,0
12541,131,127,126,127,128,128,129,128,0
12545,127,125,126,128,126,127,127,126,0
12549,121,129,129,128,126,127,127,129,0
12552,132,130,128,128,128,128,127,127,0
12555,130,128,128,128,128,127,127,127,0
12558,129,127,128,128,129,127,126,127,0
12561,128,126,126,127,127,128,128,129,0
12565,131,128,128,128,127,127,126,128,0
12569,130,127,127,129,127,129,127,125,0
12573,123,129,128,128,127,128,126,127,0
12576,127,126,126,125,130,128,128,128,0
12578,131,127,126,125,127,128,128,128,0
12583,131,127,127,127,127,126,127,127,0
12586,127,126,126,128,130,128,127,127,0
12589,129,126,126,126,132,127,128,128,0
12593,129,129,129,127,128,128,128,128,0
12596,127,128,125,126,127,127,129,125,0
12600,121,128,127,128,127,127,128,126,0
12604,122,128,128,128,128,128,127,127,0
12610,130,129,127,128,129,128,129,128,0
12616,130,128,127,127,127,127,126,127,0
12620,129,126,130,128,126,128,127,127,0
12628,127,127,129,128,128,128,126,128,0
12633,129,130,128,127,127,128,128,128,0
12638,127,128,126,126,128,127,128,127,0
12641,122,128,129,129,126,127,127,126,0
12644,121,129,128,128,126,127,127,128,0
12648,131,128,126,125,129,128,129,129,0
12652,131,128,127,127,128,127,126,127,0
12655,130,127,130,127,128,127,127,128,0
12658,122,127,128,128,126,127,126,127,0
12660,130,128,126,126,129,128,128,128,0
12665,131,127,126,128,126,127,129,129,0
12667,128,125,126,126,124,127,128,127,0
12670,122,124,126,128,129,129,129,128,0
12673,127,129,127,128,129,128,127,127,0
12676,128,129,129,129,127,127,127,126,0
12679,123,129,128,129,127,127,127,126,0
12682,123,128,129,128,127,128,128,127,0
12685,124,126,125,124,129,130,129,128,0
12688,132,129,129,128,129,128,127,128,0
12691,129,126,126,128,129,128,128,127,0
12694,125,125,126,128,129,128,128,128,0
12697,130,129,125,127,127,128,129,129,0
12700,131,128,126,128,125,128,127,128,0
12707,122,128,128,128,125,127,127,126,0
12703,130,127,128,129,130,126,128,128,0
12710,122,129,128,128,127,127,127,128,0
12715,132,129,128,126,129,128,127,127,0
12722,129,128,128,127,128,127,127,126,0
12726,129,126,127,129,123,127,128,129,0
12732,129,127,127,126,128,128,128,129,0
12736,129,128,126,127,125,127,126,128,0
12738,130,128,126,128,129,128,129,128,0
12741,125,126,126,127,128,127,127,126,0
12745,122,128,127,129,127,127,127,127,0
12748,124,129,129,128,127,127,128,126,0
12750,125,128,128,129,126,127,127,127,0
12754,130,127,127,127,128,127,128,128,0
12758,130,127,126,127,129,128,128,129,0
12761,131,127,126,126,129,128,127,127,0
12764,129,127,126,128,126,127,128,127,0
12768,130,125,126,127,127,127,126,128,0
12771,128,127,126,126,126,128,127,128,0
12774,130,128,130,126,126,128,128,127,0
12776,126,127,125,127,128,128,129,128,0
12779,131,127,127,126,128,127,127,127,0
12782,127,128,128,127,126,127,127,128,0
12785,130,129,129,128,128,127,126,127,0
12788,130,126,128,126,126,128,127,126,0
12790,123,130,128,129,128,128,127,125,0
12793,121,128,129,127,127,128,126,128,0
12796,131,128,130,128,129,127,127,127,0
12799,129,128,130,126,127,126,125,127,0
