Start Recording
23,127,123,128,134,125,128,130,124,0
28,126,130,128,119,129,128,126,133,0
32,129,130,127,125,129,129,127,130,0
36,127,128,126,123,128,127,125,131,0
40,127,128,129,124,127,129,127,128,0
44,127,128,128,128,127,129,129,123,0
50,129,127,128,126,128,129,127,128,0
54,127,129,128,138,128,129,129,127,0
58,127,127,127,126,128,126,126,123,0
62,128,128,129,129,127,128,127,129,0
66,129,128,127,128,127,126,128,132,0
70,128,128,128,130,128,125,129,118,0
74,126,123,129,138,126,127,131,122,0
78,127,128,127,125,128,129,127,132,0
81,129,129,127,128,127,128,127,130,0
85,128,127,126,127,129,128,126,124,0
88,125,125,128,126,127,126,125,121,0
91,128,126,127,121,127,130,129,126,0
95,129,128,126,125,128,129,130,130,0
99,127,126,127,127,128,126,129,131,0
103,127,126,128,128,128,128,129,121,0
106,125,127,127,126,127,129,130,130,0
110,129,129,128,127,127,126,127,130,0
113,128,128,127,128,127,126,125,121,0
117,126,120,128,135,124,129,130,123,0
120,127,124,129,135,129,129,126,128,0
124,129,130,126,121,128,128,128,133,0
127,128,129,127,128,129,130,126,126,0
131,127,127,128,128,128,129,126,123,0
135,126,129,128,129,127,129,129,126,0
137,129,129,128,122,127,129,128,133,0
142,128,129,128,124,128,125,126,130,0
146,127,129,128,122,128,126,126,127,0
149,127,127,128,125,127,129,127,128,0
152,128,129,128,122,127,126,127,130,0
155,127,127,128,129,127,126,130,122,0
157,126,124,130,138,126,126,129,121,0
178,126,128,128,124,128,129,128,131,0
186,129,128,126,126,128,130,128,134,0
190,128,128,128,123,128,128,129,128,0
194,127,128,128,125,128,130,126,121,0
197,126,128,127,123,128,128,126,127,0
201,129,129,127,121,128,127,125,131,0
204,128,129,129,134,127,129,126,124,0
207,125,126,128,129,128,128,126,121,0
211,125,128,128,130,127,129,128,132,0
214,129,129,128,124,128,129,127,129,0
217,128,127,125,133,127,128,128,125,0
219,128,126,126,125,128,131,129,121,0
222,127,121,129,136,125,127,131,122,0
226,126,129,128,122,128,130,128,133,0
229,130,128,126,122,128,126,128,124,0
231,127,127,128,123,127,128,127,126,0
235,127,128,126,124,128,126,127,128,0
238,128,127,127,127,129,129,127,127,0
241,128,128,126,123,129,126,127,124,0
245,127,126,129,131,128,125,129,120,0
249,126,123,129,139,126,124,128,130,0
252,128,128,126,124,128,128,127,133,0
255,128,128,128,123,128,126,127,131,0
258,128,126,128,137,127,124,126,121,0
260,127,126,126,125,128,125,128,131,0
264,128,129,128,123,128,125,128,131,0
267,129,130,127,126,127,124,128,123,0
270,128,126,128,141,125,126,129,120,0
273,126,124,129,137,125,127,127,130,0
276,127,130,128,125,128,129,128,131,0
280,129,128,126,124,128,128,128,133,0
283,128,128,128,120,128,131,123,128,0
286,126,127,128,135,126,125,125,128,0
291,128,129,127,124,128,128,127,131,0
296,129,129,128,130,128,129,130,121,0
299,128,128,128,133,128,129,128,125,0
303,127,127,126,140,126,125,130,120,0
306,128,126,126,122,127,129,129,128,0
326,129,128,128,131,128,129,128,133,0
330,127,128,125,126,128,126,128,129,0
333,127,129,129,122,128,129,127,123,0
337,128,127,126,124,127,128,126,127,0
341,127,129,128,123,127,124,130,131,0
345,128,128,129,138,126,128,129,123,0
348,127,125,129,134,126,129,129,123,0
351,127,127,128,124,128,130,128,131,0
355,129,128,126,123,128,131,127,129,0
358,128,128,126,128,126,126,124,133,0
376,127,129,127,119,128,128,126,128,0
381,127,127,128,122,129,129,128,127,0
384,129,129,128,129,128,127,127,127,0
388,128,125,126,126,128,126,129,131,0
392,127,124,129,139,126,126,127,126,0
395,127,127,128,127,128,127,127,127,0
399,129,127,126,127,127,129,127,127,0
402,128,127,128,128,128,127,127,128,0
405,127,128,129,126,127,128,127,127,0
408,127,127,128,125,128,127,127,125,0
412,129,128,128,135,127,125,126,130,0
415,128,129,128,137,127,127,130,122,0
418,127,124,129,134,126,125,130,122,0
420,127,124,128,124,128,129,127,134,0
424,130,130,128,120,128,129,125,135,0
427,129,128,126,120,128,132,128,133,0
430,127,128,126,124,129,126,126,128,0
438,127,127,128,126,127,126,127,131,0
442,129,130,128,135,127,132,127,129,0
445,128,127,128,128,129,125,127,130,0
449,126,126,128,128,127,128,128,126,0
453,124,125,129,128,128,128,127,128,0
456,128,129,127,130,127,127,127,127,0
459,129,128,126,127,128,126,128,127,0
462,127,127,127,128,127,126,127,118,0
465,127,121,129,137,125,128,131,124,0
469,127,129,128,123,128,130,127,134,0
472,127,129,128,124,128,128,127,122,0
476,127,128,126,123,127,126,127,131,0
480,127,128,129,127,129,128,126,128,0
482,129,128,128,124,127,127,128,131,0
485,128,129,128,124,127,124,128,131,0
490,127,128,128,128,127,127,127,128,0
493,125,125,128,122,128,130,127,129,0
495,128,130,128,124,127,129,126,131,0
498,128,127,128,125,128,130,127,127,0
501,127,124,130,137,126,126,129,121,0
505,127,125,129,135,126,127,130,122,0
508,127,129,125,120,128,130,128,134,0
511,127,130,128,124,128,128,126,133,0
527,128,128,126,123,127,131,126,126,0
531,126,127,126,124,127,130,127,125,0
534,128,128,128,122,127,128,129,128,0
538,129,128,128,131,128,126,127,128,0
541,126,127,128,131,129,128,129,125,0
546,126,124,129,135,126,129,130,121,0
549,125,129,128,123,129,129,128,131,0
554,129,129,128,128,129,126,125,129,0
558,128,128,128,124,128,129,127,128,0
564,127,127,129,125,127,128,128,128,0
567,128,129,128,127,127,127,128,124,0
570,129,128,127,128,127,126,128,132,0
573,128,128,128,125,128,131,127,127,0
577,126,125,129,138,127,124,129,119,0
580,128,128,128,124,128,126,127,127,0
582,129,129,126,129,128,129,127,133,0
585,129,129,128,125,128,125,128,132,0
589,128,127,128,135,129,126,126,130,0
592,127,127,129,128,128,128,127,123,0
610,129,127,127,127,127,128,130,132,0
614,128,128,128,130,127,126,125,130,0
618,127,127,128,124,127,127,126,123,0
622,127,127,128,131,128,127,127,126,0
626,128,129,128,127,128,130,129,127,0
630,128,129,129,127,127,127,126,131,0
634,127,128,127,135,128,126,131,123,0
637,127,122,129,137,126,125,131,125,0
643,128,129,125,122,128,128,127,134,0
649,130,130,128,125,128,128,125,129,0
652,125,128,128,128,128,127,126,127,0
655,127,127,128,125,128,128,129,131,0
658,128,129,127,123,128,127,127,129,0
661,128,127,128,129,128,127,125,126,0
664,127,127,128,128,128,129,127,128,0
667,127,129,126,127,128,127,128,130,0
670,127,127,126,131,129,126,128,132,0
673,128,130,127,131,128,128,127,126,0
676,126,127,128,130,127,125,126,121,0
679,126,122,129,137,125,127,131,124,0
683,128,127,128,122,128,129,126,131,0
689,129,129,128,127,128,129,127,132,0
693,128,129,127,122,128,127,125,129,0
696,124,129,128,128,128,128,126,130,0
699,129,130,128,128,128,130,129,131,0
702,128,127,128,126,129,128,129,121,0
705,127,127,127,130,127,125,127,126,0
709,126,125,127,127,128,125,127,127,0
712,128,128,126,129,127,128,130,129,0
720,128,128,127,129,127,126,127,130,0
723,128,126,129,136,127,128,128,119,0
726,126,124,128,136,125,127,129,123,0
729,128,127,128,123,128,129,128,131,0
732,128,128,128,121,127,129,126,130,0
735,127,128,128,126,130,127,127,126,0
738,127,128,126,124,128,125,126,129,0
743,126,130,128,133,128,129,127,133,0
756,129,127,128,124,128,127,130,128,0
759,128,128,128,137,128,128,127,121,0
763,126,124,129,137,126,129,129,123,0
767,128,126,128,126,128,129,129,134,0
770,129,129,127,126,127,128,126,130,0
773,128,127,128,125,130,129,128,124,0
777,126,127,128,134,127,125,129,126,0
780,128,128,126,121,127,127,128,134,0
783,129,129,126,124,128,128,127,128,0
786,128,127,128,124,129,125,125,123,0
789,127,127,129,138,127,125,130,122,0
796,127,125,128,126,129,128,126,134,0
799,129,129,126,123,128,129,125,130,0
802,128,129,126,120,128,129,127,128,0
807,127,128,126,122,129,128,125,127,0
813,126,128,127,128,125,128,129,123,0
830,129,129,126,122,127,127,126,128,0
835,128,128,128,132,129,125,126,127,0
839,127,126,129,135,125,128,132,124,0
843,128,122,128,132,130,131,127,129,0
847,129,130,128,122,130,131,126,133,0
851,128,129,128,122,128,127,126,124,0
854,127,126,128,123,130,131,128,126,0
857,126,128,128,132,127,130,127,127,0
860,129,129,129,128,127,129,128,133,0
864,128,128,128,128,128,128,127,130,0
867,127,126,128,136,127,125,128,119,0
871,125,126,129,128,128,127,127,128,0
875,129,130,128,125,127,129,129,130,0
878,128,126,126,124,128,129,130,120,0
881,127,124,129,135,126,127,129,125,0
885,126,128,128,122,128,128,129,130,0
887,129,128,127,124,128,126,126,133,0
890,129,129,126,123,128,129,127,131,0
893,125,129,128,128,127,127,127,127,0
896,125,126,128,123,128,126,129,131,0
899,129,130,127,126,128,125,129,132,0
901,129,129,127,129,128,124,128,131,0
905,126,128,129,138,127,125,129,119,0
908,127,125,129,127,128,128,128,131,0
911,130,129,127,122,127,130,126,134,0
914,129,129,126,122,128,125,125,131,0
917,127,129,128,126,128,128,127,121,0
921,127,125,129,137,123,127,131,121,0
925,128,130,127,122,129,127,126,134,0
931,127,130,128,126,128,125,126,132,0
936,125,129,128,125,125,124,129,119,0
940,128,128,128,122,128,130,129,130,0
947,128,129,127,123,128,126,128,132,0
950,129,129,128,124,128,126,128,129,0
953,128,127,128,129,128,124,127,127,0
957,125,128,128,132,127,128,128,129,0
962,129,129,126,126,127,129,129,127,0
965,128,128,127,130,128,125,127,131,0
968,127,128,128,134,128,124,126,119,0
971,127,122,129,138,125,126,132,122,0
974,129,130,128,122,128,130,128,132,0
978,129,128,126,120,128,130,128,126,0
981,127,127,128,130,129,128,128,129,0
993,127,126,129,136,127,129,127,127,0
997,128,129,128,123,128,126,129,132,0
1000,129,129,128,126,128,128,127,130,0
1003,128,126,129,129,127,128,126,123,0
1008,126,126,128,135,127,129,127,127,0
1011,128,127,128,128,127,124,128,132,0
1015,129,128,128,123,127,125,127,127,0
1017,128,128,128,128,126,125,129,122,0
1028,126,124,129,136,126,124,129,122,0
1031,127,127,126,120,127,129,128,132,0
1035,127,130,126,122,128,128,127,134,0
1038,128,129,128,120,128,128,127,128,0
1041,127,128,126,123,128,129,125,124,0
1045,127,127,128,125,128,129,129,128,0
1048,129,128,128,129,127,127,127,128,0
1052,126,127,128,136,126,126,130,121,0
1064,126,124,128,135,126,126,128,127,0
1070,128,128,125,122,129,130,129,130,0
1075,129,128,128,124,128,128,126,134,0
1079,129,130,126,122,128,125,129,123,0
1083,126,123,129,135,125,127,130,122,0
1086,127,126,127,120,128,131,126,132,0
1089,129,129,127,123,128,127,126,130,0
1093,126,128,128,126,130,128,125,127,0
1096,128,128,128,124,130,125,126,127,0
1099,127,128,127,126,128,129,128,124,0
1103,128,128,126,127,128,129,128,130,0
1106,128,128,128,129,128,126,128,129,0
1109,125,128,128,139,127,128,126,121,0
1113,127,126,127,130,127,125,128,126,0
1115,129,130,127,129,127,129,127,125,0
1118,129,127,128,129,128,126,126,126,0
1121,126,128,129,140,125,126,130,122,0
1124,126,122,129,137,127,128,126,127,0
1129,129,129,128,126,128,130,128,133,0
1139,128,129,128,133,129,129,127,122,0
1142,127,127,126,127,129,128,125,121,0
1145,126,129,128,122,128,128,126,123,0
1148,128,128,128,129,127,125,126,130,0
1151,128,127,126,127,127,130,126,124,0
1154,127,126,126,126,127,126,126,121,0
1157,127,128,128,127,128,124,128,126,0
1161,128,127,128,126,127,129,128,130,0
1164,128,128,127,125,128,127,126,127,0
1167,127,123,129,136,124,128,131,123,0
1170,126,123,128,136,126,125,127,133,0
1174,129,128,128,125,128,130,129,133,0
1178,128,129,125,123,128,126,126,130,0
1191,125,127,128,122,129,130,125,127,0
1196,127,128,126,123,128,126,127,126,0
1199,129,131,128,125,128,127,128,127,0
1203,128,126,128,128,128,126,129,126,0
1207,127,127,126,128,127,127,129,125,0
1210,127,127,128,133,128,126,129,129,0
1213,129,129,128,126,128,125,128,128,0
1217,129,130,127,131,128,126,128,129,0
1220,128,127,128,128,125,125,131,124,0
1222,126,122,129,134,126,125,127,129,0
1227,128,131,128,127,128,129,128,130,0
1230,128,128,127,126,127,129,127,126,0
1233,128,127,126,127,128,129,126,126,0
1239,127,127,128,128,128,130,125,132,0
1242,129,130,126,121,128,130,127,132,0
1250,129,129,128,126,128,129,126,127,0
1254,126,127,128,127,128,128,128,124,0
1257,126,128,126,125,128,128,127,129,0
1261,130,128,128,128,127,127,128,131,0
1268,129,129,126,127,127,129,128,126,0
1274,128,126,129,139,124,128,132,125,0
1277,126,123,129,136,124,126,131,122,0
1280,128,129,127,125,127,128,128,132,0
1283,127,131,125,124,129,128,126,128,0
1285,127,128,128,124,130,130,126,126,0
1288,126,127,126,123,128,128,127,132,0
1292,126,128,126,123,128,125,127,131,0
1303,129,127,128,128,127,128,127,123,0
1307,128,129,128,128,128,124,126,129,0
1310,127,127,128,127,128,127,127,126,0
1313,127,128,128,128,127,128,127,129,0
1317,128,129,128,129,127,128,127,123,0
1320,128,129,129,133,128,129,126,131,0
1323,127,125,129,136,124,126,131,123,0
1328,127,123,129,135,128,126,127,131,0
1330,129,129,128,122,129,128,125,132,0
1333,128,129,128,125,130,129,128,132,0
1343,127,128,129,127,128,128,126,127,0
1346,127,128,128,127,127,130,126,130,0
1349,129,129,126,123,127,129,127,131,0
1352,129,130,127,123,128,127,126,129,0
1356,127,128,126,130,125,122,130,123,0
1359,127,122,129,134,128,129,128,130,0
1362,129,128,128,121,128,128,126,128,0
1365,128,127,125,122,128,127,127,130,0
1379,127,126,128,124,128,125,126,130,0
1383,126,127,128,122,128,130,129,129,0
1386,129,128,127,124,127,126,128,131,0
1389,128,130,128,119,127,128,125,129,0
1393,127,128,127,119,128,129,126,127,0
1397,127,129,128,122,127,126,128,130,0
1402,129,129,127,123,128,129,128,132,0
1405,128,128,128,121,128,129,126,126,0
1409,127,129,126,128,127,126,128,119,0
1412,126,123,128,140,125,126,132,118,0
1416,128,129,128,124,128,129,128,131,0
1423,128,131,127,125,128,127,127,127,0
1426,127,127,125,130,129,124,126,125,0
1429,127,127,127,128,128,128,128,126,0
1433,128,128,128,127,128,125,128,129,0
1436,128,127,126,129,127,130,126,127,0
1439,127,126,128,136,128,125,126,126,0
1442,126,126,128,137,126,127,131,123,0
1445,129,128,127,125,127,127,128,132,0
1450,129,127,127,124,128,129,128,131,0
1453,128,126,128,124,127,126,126,128,0
1465,126,125,129,138,126,129,129,122,0
1468,128,125,128,123,128,127,127,131,0
1472,128,128,126,123,128,128,128,132,0
1477,128,129,127,122,128,127,126,125,0
1480,124,124,128,138,126,127,128,124,0
1484,127,129,127,123,129,129,129,131,0
1487,129,128,128,121,128,128,128,132,0
1490,128,128,128,124,128,124,127,128,0
1493,127,128,129,134,127,128,128,129,0
1501,128,129,128,128,128,129,129,129,0
1505,129,128,127,125,127,129,126,131,0
1508,127,126,128,131,128,126,128,119,0
1511,126,124,128,138,126,125,129,122,0
1515,127,124,128,126,128,129,127,125,0
1518,129,128,127,123,128,129,128,133,0
1521,128,129,126,124,128,128,128,123,0
1525,126,126,128,126,128,128,126,125,0
1528,127,127,126,125,128,130,127,129,0
1531,129,128,127,125,128,130,129,130,0
1580,128,129,128,131,129,128,127,124,0
1589,127,128,128,132,127,126,128,123,0
1610,127,127,129,135,127,131,127,133,0
1618,129,130,127,119,129,132,126,131,0
1625,128,129,127,122,128,129,126,131,0
1631,127,126,127,123,128,127,126,121,0
1647,127,127,126,127,127,128,126,127,0
1653,129,128,128,128,127,129,128,133,0
1659,127,128,127,127,128,128,126,123,0
1665,126,127,128,124,129,128,127,124,0
1671,126,128,126,130,126,126,127,127,0
1716,129,128,128,133,128,128,130,122,0
1727,127,122,128,139,124,127,131,124,0
1735,126,123,129,139,129,131,130,130,0
1782,125,127,126,129,127,132,130,128,0
1786,128,129,128,122,128,127,130,130,0
1790,129,128,127,122,127,125,126,132,0
1794,127,129,128,125,128,130,127,126,0
1797,126,128,128,128,128,129,128,129,0
1850,129,129,127,124,128,129,129,133,0
1855,129,128,126,124,127,128,126,125,0
1859,127,127,127,128,126,126,129,119,0
1864,126,124,129,133,128,129,128,131,0
1868,129,129,126,123,128,127,128,133,0
1872,128,129,128,123,128,128,127,130,0
1876,127,127,127,126,127,127,127,121,0
1882,126,127,125,124,127,129,130,129,0
1886,129,128,131,126,126,126,130,129,0
1889,127,125,129,122,122,126,131,132,0
1894,127,127,126,129,128,127,128,127,0
1898,124,130,132,126,129,127,139,130,0
1902,122,129,131,109,98,125,101,124,0
1905,125,127,128,130,135,130,132,132,0
1909,124,126,127,127,136,128,127,125,0
1912,131,123,127,139,130,127,131,123,0
1916,130,122,126,137,133,128,126,129,0
1920,135,129,127,124,131,127,119,126,0
1924,130,132,126,122,130,128,128,125,0
1927,126,136,128,124,131,129,128,125,0
1931,127,148,125,121,119,123,128,127,0
1935,124,164,119,125,134,120,138,125,0
1938,120,179,120,126,119,121,134,126,0
1942,124,202,136,110,93,123,116,126,0
1945,126,204,116,131,140,115,85,130,0
1949,126,204,108,116,108,123,143,131,0
1952,118,221,122,150,150,116,131,143,0
1955,114,223,122,135,170,126,81,133,0
1959,82,201,100,90,152,123,106,155,0
1962,120,159,101,121,108,126,119,137,0
1966,178,145,88,124,148,110,113,130,0
1969,138,158,115,56,86,109,102,144,0
1972,149,152,101,94,159,112,99,156,0
1976,135,153,110,61,139,115,100,172,0
1985,129,149,116,53,126,105,84,157,0
1989,123,149,123,58,128,97,68,156,0
1994,125,140,100,73,126,92,64,160,0
1999,121,140,141,65,122,91,86,138,0
2002,122,130,114,111,134,95,114,127,0
2005,124,132,92,117,128,95,112,135,0
2009,118,142,109,133,134,96,133,130,0
2012,125,136,90,147,131,100,155,126,0
2015,122,145,113,173,124,105,169,116,0
2019,123,146,117,181,138,107,153,112,0
2022,128,142,115,182,125,107,157,105,0
2026,130,142,132,171,115,106,152,106,0
2029,131,130,129,194,183,107,147,103,0
2033,132,125,136,176,135,123,179,90,0
2036,130,126,147,167,129,122,152,125,0
2039,131,124,147,168,138,125,159,118,0
2052,131,119,146,159,134,130,154,122,0
2056,129,115,161,146,131,134,158,120,0
2059,130,113,133,153,128,135,152,128,0
2120,132,138,148,145,110,139,148,133,0
2125,131,154,143,132,97,134,147,133,0
2129,128,145,142,119,100,135,149,128,0
2134,127,129,147,121,105,131,144,128,0
2137,129,124,155,121,105,125,138,128,0
2141,127,105,147,138,112,121,138,123,0
2147,125,91,145,160,118,118,134,117,0
2144,125,96,147,154,115,117,137,113,0
2151,128,89,147,164,121,119,128,117,0
2154,128,85,143,171,124,121,129,116,0
2158,126,84,142,162,127,124,128,114,0
2164,124,86,140,158,129,125,128,118,0
2167,129,87,138,154,137,126,118,121,0
2171,130,83,138,146,139,133,132,121,0
2174,127,85,135,135,128,135,133,121,0
2177,127,82,132,124,145,139,131,125,0
2181,128,87,133,132,140,143,147,124,0
2185,132,87,131,142,142,142,124,123,0
2188,129,84,127,138,122,136,130,108,0
2192,131,86,126,162,159,146,121,117,0
2196,134,90,133,138,137,142,132,123,0
2200,130,91,132,142,143,145,129,124,0
2204,128,90,132,129,125,139,124,128,0
2208,127,94,131,149,144,144,132,124,0
2212,128,93,134,141,132,143,137,118,0
2217,132,94,113,133,135,145,128,125,0
2221,128,97,131,130,135,143,128,122,0
2225,127,98,128,139,130,143,127,126,0
2228,129,101,127,130,133,143,129,129,0
2232,130,104,128,132,133,141,129,129,0
2236,129,106,127,131,134,139,132,124,0
2239,127,107,127,126,133,140,129,127,0
2242,128,109,125,124,132,139,128,131,0
2245,129,112,125,125,132,141,127,129,0
2255,128,112,127,124,132,141,128,130,0
2258,126,114,127,124,132,140,128,130,0
2261,128,115,126,124,132,141,127,131,0
2265,131,116,126,125,132,139,125,130,0
2268,129,117,126,123,131,138,125,128,0
2271,126,117,128,125,128,136,126,124,0
2277,127,119,125,129,135,138,126,127,0
2280,130,122,128,127,131,137,126,127,0
2283,127,122,127,125,131,137,126,125,0
2286,125,122,127,127,139,136,122,125,0
2289,125,123,127,128,129,138,125,128,0
2291,128,125,128,125,129,139,124,128,0
2322,127,126,127,120,127,141,123,123,0
2326,126,124,127,123,129,139,124,127,0
2332,125,125,128,122,127,138,120,130,0
2335,128,124,126,118,129,139,123,130,0
2339,127,125,127,119,128,142,125,126,0
2342,126,124,127,119,128,139,122,124,0
2346,126,128,127,114,128,143,125,127,0
2349,128,126,128,117,130,141,121,128,0
2389,128,127,127,114,129,141,120,126,0
2393,127,126,126,115,128,140,125,125,0
2397,126,127,127,114,128,139,125,129,0
2401,128,129,127,116,126,139,122,129,0
2405,127,129,124,118,127,137,126,124,0
2408,127,130,128,117,126,135,124,127,0
2414,127,130,129,120,126,134,126,125,0
2418,128,131,128,119,126,135,126,126,0
2422,128,133,131,118,124,130,126,126,0
2425,127,133,124,119,125,129,127,125,0
2429,127,133,125,117,123,132,129,128,0
2433,128,136,125,119,124,130,127,130,0
2437,128,135,126,118,124,132,126,130,0
2442,126,135,125,120,124,128,127,129,0
2446,126,134,127,121,125,128,128,133,0
2450,128,134,126,120,126,127,126,133,0
2455,129,133,126,120,126,129,127,133,0
2459,127,134,126,119,127,129,127,125,0
2462,125,132,126,119,126,128,127,132,0
2466,128,134,126,124,126,129,128,135,0
2469,129,133,126,122,128,128,127,133,0
2472,127,131,126,119,127,126,127,131,0
2477,125,131,126,122,127,128,127,132,0
2480,129,132,126,123,127,125,131,129,0
2484,127,129,128,136,125,127,130,129,0
2488,127,130,129,134,126,125,130,124,0
2492,126,129,125,118,126,125,127,132,0
2496,128,132,128,119,126,126,127,132,0
2500,129,131,125,123,126,125,126,131,0
2505,127,129,130,125,126,125,127,126,0
2509,126,127,123,127,127,124,127,126,0
2512,127,130,127,128,127,124,128,128,0
2516,129,131,128,127,126,124,126,129,0
2520,127,129,126,126,126,123,127,124,0
2523,127,129,129,127,126,123,128,127,0
2528,127,130,130,130,127,123,127,125,0
2532,129,131,128,135,128,120,130,123,0
2537,126,127,129,139,125,121,131,123,0
2541,126,130,128,123,128,125,126,128,0
2543,126,129,127,128,128,126,128,131,0
2546,129,129,126,126,128,124,127,131,0
2549,128,130,127,125,128,123,127,124,0
2554,125,128,126,126,128,122,127,123,0
2558,128,128,127,123,128,124,128,130,0
2561,130,130,127,129,128,120,130,127,0
2564,127,128,128,129,128,124,129,127,0
2567,127,127,127,123,127,121,129,123,0
2570,127,128,129,124,128,123,128,132,0
2573,130,129,127,125,127,123,128,131,0
2577,129,129,126,123,128,123,128,132,0
2579,125,128,129,130,128,122,127,128,0
2583,127,127,127,131,127,124,129,127,0
2585,130,129,127,126,126,122,126,131,0
2589,127,130,127,127,127,123,129,130,0
2592,127,129,130,138,124,125,131,125,0
2595,127,125,130,138,124,125,131,126,0
2598,129,129,127,124,128,127,128,135,0
2601,129,129,126,123,127,127,128,132,0
2604,128,128,129,124,127,126,127,127,0
2607,127,127,127,126,127,125,129,132,0
2610,130,131,126,123,126,122,128,132,0
2613,129,129,127,123,125,125,127,132,0
2616,127,128,129,121,126,123,128,127,0
2619,125,128,127,125,126,124,127,128,0
2622,129,129,126,126,126,126,129,130,0
2626,129,128,129,127,127,124,128,130,0
2629,126,128,130,127,126,127,127,125,0
2632,126,129,127,127,126,126,127,130,0
2636,129,130,128,129,126,127,128,130,0
2639,128,130,127,133,127,129,127,128,0
2642,127,129,128,132,126,127,125,123,0
2646,125,129,128,142,125,125,128,121,0
2651,128,129,128,138,126,130,126,132,0
2655,129,128,127,124,127,131,127,129,0
2658,127,128,127,128,126,131,126,124,0
2661,126,128,127,124,126,133,126,123,0
2664,128,129,130,126,127,132,126,130,0
2668,128,129,128,123,127,133,127,130,0
2670,127,126,127,125,127,132,127,125,0
2673,126,129,128,139,126,130,130,122,0
2676,127,127,128,139,125,130,126,128,0
2679,129,129,127,124,127,134,125,128,0
2682,127,127,128,122,128,133,126,125,0
2685,127,128,127,127,128,134,128,128,0
2688,128,130,127,126,127,132,126,131,0
2690,129,129,127,133,127,133,126,129,0
2693,128,126,128,130,127,129,128,118,0
2696,126,126,128,138,126,130,127,129,0
2699,128,130,127,128,127,131,126,131,0
2702,129,129,127,127,128,131,126,130,0
2705,126,126,128,138,126,129,129,121,0
2708,125,127,127,126,127,134,128,127,0
2711,127,127,128,126,128,133,127,130,0
2713,129,129,126,131,128,132,126,127,0
2717,129,128,128,124,128,132,127,126,0
2720,126,127,127,129,127,132,128,125,0
2723,127,128,127,129,128,129,128,128,0
2726,129,128,127,125,127,131,127,125,0
2729,128,128,127,127,126,127,128,119,0
2732,126,125,129,138,126,129,129,120,0
2738,125,128,128,129,128,129,126,133,0
2741,130,129,127,124,128,130,126,132,0
2745,128,127,128,128,128,130,126,122,0
2747,126,126,128,127,127,128,127,123,0
2750,127,129,128,129,127,130,127,126,0
2753,129,128,127,128,128,129,128,128,0
2757,128,129,128,127,127,129,128,120,0
2759,127,128,128,129,127,128,128,125,0
2763,126,128,128,128,127,129,127,122,0
2766,130,129,128,129,128,127,129,125,0
2769,127,126,128,135,125,129,130,127,0
2772,126,128,128,133,128,128,126,126,0
2776,125,128,127,123,128,128,127,133,0
2779,130,130,126,121,129,128,126,130,0
2782,127,129,127,124,128,129,127,127,0
2785,124,127,127,127,128,124,126,125,0
2788,125,127,128,128,128,127,126,125,0
2791,129,128,127,125,129,126,126,131,0
2794,129,128,128,128,127,125,126,127,0
2797,128,127,129,134,125,124,128,123,0
2799,126,127,129,137,126,126,127,129,0
2802,129,128,124,119,128,127,127,132,0
2807,129,130,126,124,128,127,126,130,0
2810,128,127,124,127,128,128,128,129,0
2814,127,127,127,127,128,126,126,127,0
2817,128,128,125,126,128,126,128,130,0
2821,129,125,125,125,128,127,127,129,0
2824,126,127,125,126,128,126,127,127,0
2828,126,128,129,125,128,127,128,132,0
2833,129,128,129,128,128,125,129,125,0
2837,128,128,129,134,127,127,129,130,0
2840,126,126,129,129,128,126,129,129,0
2844,127,127,128,136,127,124,130,129,0
2847,128,129,126,124,128,123,129,126,0
2850,126,129,128,124,128,125,127,129,0
2854,125,128,126,122,129,126,126,127,0
2857,126,127,126,127,127,128,127,129,0
2859,128,129,127,123,129,126,127,125,0
2862,128,127,130,138,126,123,129,125,0
2865,127,126,129,136,126,126,125,128,0
2869,127,127,126,119,128,128,126,129,0
2872,127,129,128,126,129,126,125,128,0
2875,130,129,127,127,128,127,128,128,0
2878,128,128,128,126,127,129,128,130,0
2881,125,125,128,127,128,128,127,126,0
2885,128,129,128,127,128,129,128,130,0
2889,128,128,126,126,128,125,128,131,0
2892,128,130,129,125,128,126,126,125,0
2897,126,127,129,136,127,129,128,128,0
2901,128,128,126,124,127,128,126,127,0
2904,128,130,126,125,128,125,127,123,0
2906,128,128,127,128,128,123,127,129,0
2909,127,126,129,135,126,127,126,122,0
2912,127,128,128,127,127,123,127,129,0
2916,128,128,128,128,127,126,129,125,0
2918,128,127,130,134,126,125,129,124,0
2921,126,126,128,130,128,130,127,130,0
2929,127,128,127,121,128,130,127,134,0
2932,130,129,126,121,128,131,127,132,0
2935,128,128,127,129,128,129,127,129,0
2939,126,127,126,128,127,129,128,127,0
2942,128,128,128,123,128,128,127,130,0
2945,129,128,129,127,128,129,127,126,0
2949,128,127,128,122,128,126,128,128,0
2951,126,127,128,127,128,128,127,128,0
2955,127,129,127,128,127,127,128,130,0
2958,129,127,126,124,128,123,127,131,0
2961,128,128,126,127,127,125,127,122,0
2963,124,125,130,137,126,126,128,122,0
2966,127,126,129,134,129,129,127,134,0
2970,130,129,127,121,129,128,128,133,0
2973,129,127,126,123,129,127,126,126,0
2976,127,126,128,122,128,129,127,127,0
2979,127,127,126,125,128,129,128,127,0
2981,128,129,126,128,127,127,128,130,0
2985,128,128,126,126,128,129,125,129,0
2990,126,127,127,126,128,124,127,121,0
2993,126,128,128,123,127,128,129,120,0
2996,128,127,129,139,126,126,129,125,0
2999,127,126,128,124,129,125,126,132,0
3002,127,126,128,122,129,125,128,130,0
3007,126,128,128,122,128,129,127,131,0
3010,129,130,126,125,128,130,128,129,0
3014,129,127,129,139,126,125,129,122,0
3017,126,125,129,133,128,129,128,128,0
3019,127,128,126,123,128,129,128,132,0
3023,129,129,126,124,128,129,127,132,0
3029,128,128,127,123,128,127,128,122,0
3032,126,127,129,124,128,125,126,123,0
3035,126,127,126,123,127,128,127,126,0
3038,128,128,127,128,128,128,128,124,0
3040,129,128,127,126,128,129,126,124,0
3043,126,123,129,136,126,125,131,123,0
3046,125,126,128,129,128,129,127,130,0
3049,127,129,125,122,129,129,126,131,0
3051,129,128,128,121,128,130,126,131,0
3054,128,127,128,123,127,129,125,125,0
3057,126,126,126,126,128,128,127,128,0
3059,128,129,127,126,128,128,127,131,0
3062,129,127,128,126,128,129,126,126,0
3065,127,127,128,133,128,125,126,125,0
3068,126,127,128,136,128,124,126,125,0
3070,129,130,126,129,127,122,129,131,0
3073,128,129,128,136,128,124,126,127,0
3076,125,129,128,123,129,128,127,126,0
3078,125,127,126,126,127,125,127,128,0
3081,128,129,126,128,127,124,127,127,0
3084,128,130,126,128,128,125,126,129,0
3088,128,125,129,139,126,126,129,122,0
3092,126,126,129,134,126,127,129,126,0
3095,127,130,126,122,128,130,128,131,0
3098,130,129,128,124,128,130,129,129,0
3101,128,128,128,123,128,125,126,127,0
3105,126,125,128,127,128,128,128,131,0
3112,128,128,128,124,128,126,128,125,0
3116,129,129,128,125,128,126,126,125,0
3119,128,127,126,121,128,126,128,122,0
3122,125,126,129,135,125,126,128,122,0
3125,127,126,126,118,128,129,128,134,0
3128,129,129,126,121,129,130,126,133,0
3131,129,127,129,123,128,130,128,131,0
3134,126,128,128,123,128,127,126,127,0
3137,126,127,126,123,128,129,127,128,0
3139,129,128,128,130,128,129,129,127,0
3143,128,127,128,136,129,125,127,129,0
3146,126,128,128,126,127,126,128,127,0
3149,127,129,128,131,127,126,128,129,0
3152,129,128,128,136,127,124,128,129,0
3155,128,128,128,127,127,128,129,125,0
3158,126,125,129,140,126,127,129,122,0
3160,126,126,129,136,128,127,127,133,0
3163,129,130,126,121,129,127,128,134,0
3167,129,128,128,121,129,127,127,131,0
3170,127,129,128,125,128,126,126,124,0
3174,126,127,126,129,128,130,127,129,0
3177,129,128,127,123,127,125,127,131,0
3180,129,128,126,124,129,124,125,126,0
3183,127,127,128,126,129,127,126,124,0
3186,126,127,127,121,128,125,126,126,0
3189,129,129,128,129,128,130,127,133,0
3192,130,128,129,128,127,129,126,128,0
3195,127,127,128,133,127,126,127,126,0
3199,126,127,129,128,127,126,127,126,0
3203,129,129,127,132,127,128,129,125,0
3207,128,128,126,136,127,127,128,123,0
3209,126,126,129,136,124,127,131,124,0
3212,125,125,128,135,126,125,129,125,0
3216,130,129,127,122,128,131,127,133,0
3219,129,129,126,123,129,125,127,131,0
3223,126,128,128,126,128,130,128,125,0
3226,126,127,126,127,128,125,126,127,0
3229,129,129,126,124,128,128,127,132,0
3233,129,127,126,127,127,129,128,119,0
3237,127,127,128,127,128,127,126,123,0
3240,127,126,129,127,128,127,127,126,0
3243,128,128,127,124,128,130,129,128,0
3246,129,128,127,124,127,125,127,130,0
3249,128,127,128,127,127,125,127,128,0
3252,126,127,128,133,127,124,128,130,0
3255,129,129,128,126,128,126,127,128,0
3258,129,127,127,132,128,123,127,121,0
3262,125,124,129,141,126,130,130,121,0
3266,125,124,129,137,125,124,128,131,0
3269,129,129,128,123,128,128,128,129,0
3273,129,128,126,124,128,128,127,128,0
3276,128,128,128,128,129,125,126,126,0
3280,126,127,128,127,128,128,128,127,0
3283,128,128,127,126,128,127,129,132,0
3285,129,129,128,126,127,125,126,129,0
3288,128,128,128,122,127,127,128,119,0
3292,126,124,129,136,124,128,129,124,0
3296,127,126,128,132,127,131,126,133,0
3299,129,129,126,119,127,127,125,129,0
3303,127,130,125,123,129,128,125,126,0
3306,126,127,128,124,129,127,128,124,0
3308,126,127,128,126,129,130,129,124,0
3311,129,127,126,126,127,128,127,129,0
3316,128,128,128,130,128,128,129,123,0
3318,124,126,127,123,128,128,127,126,0
3321,127,127,128,131,128,128,128,133,0
3326,129,131,128,129,127,125,127,130,0
3329,128,128,127,123,127,129,128,123,0
3334,126,127,127,131,127,126,129,122,0
3336,126,126,130,137,128,128,127,131,0
3339,130,129,128,122,128,131,127,130,0
3342,129,129,128,126,127,130,127,129,0
3347,127,127,129,127,128,128,126,124,0
3350,127,127,127,129,128,129,128,127,0
3354,129,128,128,126,127,128,126,127,0
3357,128,128,127,122,128,125,124,122,0
3360,126,127,129,137,124,128,130,124,0
3363,126,124,128,132,126,128,128,133,0
3366,129,128,127,124,128,128,128,132,0
3369,129,128,125,120,128,125,126,132,0
3371,126,128,126,132,129,127,127,128,0
3375,126,127,126,128,127,127,130,131,0
3378,128,128,125,126,128,126,126,127,0
3381,129,129,128,129,128,127,127,124,0
3386,125,129,129,126,128,128,127,127,0
3391,127,128,126,126,126,126,126,129,0
3395,130,128,128,129,128,127,127,129,0
3398,129,127,126,126,127,126,126,130,0
3401,126,126,127,126,128,127,128,127,0
3405,126,126,129,138,129,125,128,132,0
3408,129,129,127,122,128,126,126,127,0
3416,129,129,128,129,129,125,126,126,0
3421,128,126,128,136,129,129,130,122,0
3424,126,125,129,135,125,130,130,127,0
3427,129,128,125,122,128,129,129,134,0
3430,128,130,128,123,128,132,128,123,0
3433,127,126,126,124,128,127,128,126,0
3436,126,127,128,132,128,126,127,129,0
3439,128,128,126,128,128,128,129,132,0
3441,129,130,127,130,128,129,128,127,0
3446,128,127,129,137,126,126,129,122,0
3449,125,125,129,138,126,128,128,131,0
3452,127,130,128,124,128,129,128,131,0
3457,129,128,126,122,128,128,127,131,0
3460,128,128,128,127,128,127,126,127,0
3463,127,129,127,130,127,126,127,130,0
3466,129,130,128,126,128,128,127,130,0
3469,128,129,128,123,128,126,128,131,0
3472,128,128,128,138,125,123,129,120,0
3476,126,125,129,138,126,127,127,126,0
3479,127,128,125,122,128,129,127,133,0
3482,129,128,127,122,127,127,126,130,0
3487,128,128,126,122,127,126,126,129,0
3493,127,127,128,123,128,128,127,127,0
3498,128,128,127,128,128,128,127,127,0
3501,129,128,127,130,127,130,127,125,0
3504,128,127,128,133,128,128,128,124,0
3507,127,125,129,138,125,125,131,120,0
3510,127,125,129,138,128,129,128,132,0
3514,129,128,127,123,127,131,129,129,0
3516,128,128,126,119,129,131,128,127,0
3519,125,127,129,122,129,128,127,128,0
3522,127,129,128,127,127,126,127,132,0
3526,129,129,126,128,128,125,128,132,0
3530,129,128,126,124,128,126,126,123,0
3533,124,127,128,135,128,125,127,124,0
3536,126,128,126,124,128,127,129,129,0
3539,129,128,128,130,127,127,128,132,0
3543,129,126,130,137,124,127,130,126,0
3545,126,124,129,134,126,128,129,122,0
3548,127,128,127,123,128,130,129,132,0
3551,130,127,126,122,128,128,127,132,0
3554,129,127,127,122,127,130,126,128,0
3557,127,127,126,121,129,127,127,129,0
3561,125,127,127,128,127,128,126,127,0
3564,130,129,126,127,128,129,127,129,0
3568,128,128,127,133,127,131,129,123,0
3571,126,125,129,136,128,126,126,127,0
3573,126,128,128,123,128,130,127,132,0
3578,129,131,128,124,128,125,125,126,0
3583,126,128,128,125,128,127,125,129,0
3588,128,129,128,123,128,127,126,126,0
3591,126,128,127,125,128,125,126,129,0
3594,129,129,128,130,128,128,127,126,0
3598,128,128,129,128,128,127,130,122,0
3604,126,123,130,138,125,126,130,123,0
3606,126,125,128,124,129,131,128,131,0
3609,129,130,127,126,128,130,128,129,0
3612,129,128,127,123,127,129,128,126,0
3616,128,127,126,130,128,130,127,129,0
3619,125,130,128,121,127,127,127,124,0
3622,129,127,128,126,128,129,129,127,0
3626,128,128,125,124,128,129,129,126,0
3629,127,127,128,127,128,124,128,126,0
3632,124,126,128,124,128,126,128,130,0
3635,129,129,128,130,127,124,127,127,0
3639,129,129,126,124,128,127,125,125,0
3642,127,127,128,126,128,125,126,124,0
3646,124,125,130,139,125,126,128,125,0
3648,129,128,126,123,128,128,127,132,0
3652,128,128,126,124,128,128,127,125,0
3655,127,128,128,124,128,128,127,124,0
3659,126,126,126,129,128,131,129,122,0
3662,129,128,126,128,128,130,128,127,0
3665,128,127,128,135,128,129,128,125,0
3668,127,123,130,136,124,126,130,124,0
3672,125,125,129,134,125,128,126,130,0
3678,128,130,127,127,128,127,126,130,0
3685,130,128,128,124,128,129,126,132,0
3689,128,127,128,123,128,125,126,127,0
3693,125,129,128,128,128,126,126,124,0
3696,128,130,126,124,128,126,127,127,0
3699,129,127,128,127,129,130,130,126,0
3701,128,126,128,130,127,129,129,125,0
3705,126,127,129,128,128,128,127,126,0
3708,127,127,126,126,128,128,128,127,0
3711,129,129,127,124,128,127,125,125,0
3720,128,127,127,127,128,128,126,128,0
3729,126,125,130,137,127,126,129,120,0
3732,126,126,129,125,128,127,128,133,0
3737,130,130,126,124,128,127,128,130,0
3740,128,128,127,128,127,130,129,128,0
3743,126,128,128,133,126,126,129,121,0
3747,126,126,129,134,128,127,127,131,0
3750,130,128,127,121,128,129,128,133,0
3754,129,128,128,126,127,127,127,131,0
3757,127,126,128,128,128,125,126,127,0
3760,125,129,128,132,128,127,127,128,0
3762,129,127,128,125,127,128,126,129,0
3767,128,128,128,133,128,126,126,129,0
3770,127,127,128,124,127,128,128,121,0
3774,125,126,128,137,126,125,128,127,0
3777,129,129,127,122,128,129,128,134,0
3782,129,127,127,123,127,131,128,129,0
3789,127,127,128,123,128,128,126,124,0
3794,127,127,127,121,128,131,128,131,0
3800,130,128,128,121,128,127,127,132,0
3804,129,130,127,127,127,127,128,128,0
3807,127,128,128,131,128,128,129,124,0
3810,127,128,128,124,127,128,128,132,0
3814,128,127,126,122,128,127,126,126,0
3817,128,128,126,123,127,128,127,123,0
3821,126,127,126,122,129,127,126,127,0
3824,127,127,128,126,127,127,126,127,0
3827,128,126,129,141,126,128,130,126,0
3830,128,125,129,140,126,127,130,123,0
3834,126,126,128,137,125,127,129,124,0
3837,124,129,127,121,129,132,128,131,0
3840,130,129,127,122,131,131,128,134,0
3843,129,129,127,123,129,126,127,132,0
3846,128,129,128,124,127,125,126,126,0
3849,125,129,128,124,128,130,129,131,0
3853,129,128,128,125,128,128,128,132,0
3856,129,128,126,129,128,125,126,130,0
3859,127,126,129,135,127,127,126,122,0
3862,127,126,126,126,128,126,128,131,0
3865,129,128,126,127,128,126,126,128,0
3868,129,129,128,127,128,126,127,129,0
3872,128,128,129,134,128,130,128,124,0
3876,126,127,129,128,128,131,128,126,0
3879,128,128,128,127,128,128,128,130,0
3882,129,128,129,131,127,125,128,129,0
3886,127,127,128,128,129,129,130,124,0
3888,125,123,129,138,125,128,129,121,0
3892,128,129,125,124,128,131,129,130,0
3897,129,129,126,123,129,127,127,131,0
3903,128,128,126,120,129,132,127,124,0
3906,126,127,125,118,127,129,127,130,0
3910,127,128,126,120,127,126,127,132,0
3913,130,129,128,125,127,131,127,127,0
3916,128,126,128,128,128,129,128,127,0
3918,126,126,129,140,127,127,129,130,0
3921,128,127,126,128,127,127,129,131,0
3924,130,128,126,128,127,128,129,131,0
3928,128,126,128,132,129,130,129,119,0
3932,125,125,129,139,126,127,129,124,0
3935,126,125,129,134,126,127,127,133,0
3938,130,128,127,119,128,131,126,130,0
3941,128,128,126,124,128,131,127,126,0
3944,127,128,128,124,128,127,126,130,0
3947,127,128,127,129,128,130,128,132,0
3950,129,128,126,124,128,129,129,131,0
3953,128,128,126,128,127,127,126,125,0
3958,125,128,128,131,127,127,129,123,0
3961,127,127,125,126,126,127,128,126,0
3965,128,127,126,128,128,127,128,129,0
3969,128,127,127,128,127,129,130,121,0
3972,126,125,129,139,125,126,130,123,0
3978,126,125,128,123,128,131,128,130,0
3980,130,128,128,129,128,130,127,130,0
3983,128,128,128,131,128,127,127,132,0
3986,127,127,126,123,128,127,126,126,0
3990,127,126,128,128,128,129,127,129,0
3994,129,128,128,128,128,130,127,130,0
3997,128,127,126,125,128,129,128,124,0
4003,127,127,128,132,128,128,127,127,0
4006,127,128,126,126,128,126,127,128,0
4013,129,129,128,137,128,125,127,127,0
4023,128,129,128,128,128,124,126,129,0
4027,126,125,130,135,125,126,130,123,0
4031,125,124,129,135,128,131,128,131,0
4034,128,130,125,121,128,127,128,134,0
4037,127,130,128,127,128,127,125,130,0
4041,126,127,128,126,128,127,127,127,0
4045,126,126,128,128,128,131,128,128,0
4055,129,128,128,123,128,127,127,132,0
4059,129,127,127,127,128,128,126,123,0
4063,127,128,126,127,128,127,127,127,0
4068,126,127,128,125,128,124,128,128,0
4071,129,129,128,125,128,126,126,130,0
4074,129,128,128,125,127,129,125,129,0
4077,127,126,128,127,128,125,127,125,0
4080,126,126,128,124,127,127,128,128,0
4084,129,128,128,127,128,128,127,130,0
4088,128,129,128,123,128,128,127,127,0
4092,126,124,130,138,124,126,131,123,0
4095,125,124,129,136,125,125,126,131,0
4098,129,130,126,122,129,128,127,133,0
4101,129,128,128,125,129,127,128,132,0
4105,126,127,127,120,128,128,126,127,0
4108,126,126,128,126,128,131,128,126,0
4112,129,128,127,124,128,125,127,131,0
4115,129,130,126,127,128,124,126,127,0
4118,126,127,127,126,128,128,125,125,0
4121,126,126,129,127,127,129,128,129,0
4125,125,128,128,125,128,124,126,127,0
4129,129,127,127,126,127,128,126,126,0
4134,128,126,127,133,128,128,127,126,0
4139,126,127,127,133,128,126,126,122,0
4143,128,127,127,127,128,129,127,129,0
4147,129,129,128,133,128,128,125,122,0
4150,127,125,129,136,125,127,131,125,0
4154,126,124,129,133,126,125,125,131,0
4158,128,128,127,122,129,129,126,129,0
4161,129,129,125,121,128,128,127,132,0
4164,129,127,128,120,128,128,127,130,0
4167,127,128,126,125,129,127,126,125,0
4171,127,126,128,129,128,128,129,123,0
4176,129,129,129,132,128,127,128,127,0
4178,128,127,128,126,128,125,128,129,0
4182,127,128,127,127,128,127,127,127,0
4186,127,129,129,134,128,127,127,124,0
4188,129,128,129,136,127,129,128,124,0
4191,128,127,126,127,127,125,126,120,0
4195,125,128,127,121,127,126,129,120,0
4198,126,126,129,137,126,130,128,132,0
4201,128,129,128,125,128,126,128,129,0
4205,129,126,128,129,127,130,128,124,0
4208,127,127,129,140,125,126,129,123,0
4211,126,126,129,135,126,128,129,128,0
4214,129,128,128,120,129,130,127,134,0
4217,129,128,126,118,128,128,127,133,0
4220,128,128,128,122,128,126,127,126,0
4222,127,126,128,130,127,129,129,124,0
4231,129,127,128,129,128,129,128,125,0
4234,129,127,126,127,128,126,128,122,0
4239,128,128,126,129,127,125,127,123,0
4245,127,128,128,127,128,129,127,126,0
4248,129,127,126,126,128,124,127,131,0
4251,129,128,129,135,127,126,127,130,0
4254,127,128,130,138,125,126,131,124,0
4259,125,125,130,134,128,130,128,130,0
4261,129,128,125,128,128,129,128,132,0
4266,129,128,126,124,129,128,126,129,0
4269,127,127,128,127,126,130,129,122,0
4272,126,124,128,126,128,126,126,127,0
4276,129,130,125,122,128,128,128,133,0
4279,129,128,127,121,128,128,125,126,0
4282,127,128,126,123,128,128,126,125,0
4285,125,127,126,125,128,129,127,127,0
4287,130,129,128,123,128,128,127,131,0
4291,128,129,129,123,127,127,126,122,0
4295,127,126,127,122,129,128,126,118,0
4298,124,126,126,122,127,129,127,126,0
4300,128,128,128,122,127,130,129,123,0
4303,129,128,129,131,127,124,128,132,0
4306,125,126,130,140,125,126,130,123,0
4311,125,125,130,138,127,128,128,125,0
4315,129,126,126,125,129,127,127,130,0
4321,130,127,128,124,128,129,127,128,0
4327,127,127,126,126,128,128,127,125,0
4331,126,125,129,136,129,125,129,131,0
4336,129,130,126,126,128,126,127,131,0
4340,129,128,128,127,128,124,127,128,0
4344,126,129,126,121,128,128,126,127,0
4347,126,126,126,125,129,125,129,124,0
4352,127,126,129,138,126,129,130,127,0
4359,128,126,125,119,128,129,128,134,0
4362,127,128,126,128,130,132,128,130,0
4366,125,127,128,123,128,124,126,127,0
4369,128,127,128,126,128,124,128,133,0
4372,130,129,128,124,128,125,128,131,0
4375,128,128,126,128,127,126,128,122,0
4378,127,128,128,130,125,127,130,122,0
4382,127,127,128,138,126,129,130,126,0
4385,129,130,128,121,128,129,127,133,0
4388,128,127,128,124,128,130,128,130,0
4392,127,127,126,127,127,130,128,126,0
4396,127,128,128,122,128,128,127,130,0
4398,130,128,126,128,128,128,127,131,0
4402,129,129,128,133,128,127,127,129,0
4406,126,128,127,126,127,125,125,126,0
4408,127,128,129,130,126,126,128,131,0
4411,129,128,126,127,128,126,129,123,0
4422,128,126,129,137,127,126,128,122,0
4427,126,125,128,134,125,127,129,123,0
4431,126,130,127,120,128,132,127,133,0
4434,129,130,127,121,128,129,125,129,0
4437,128,130,128,120,128,131,125,132,0
4441,125,129,128,121,128,128,125,126,0
4444,126,127,125,121,128,130,128,131,0
4447,129,128,126,128,127,127,128,125,0
4456,127,126,128,131,126,127,128,130,0
4460,127,126,128,131,127,126,129,122,0
4463,127,127,129,137,127,128,129,128,0
4468,129,128,128,127,127,129,129,132,0
4472,128,127,126,129,127,124,129,124,0
4477,126,125,129,137,125,126,127,120,0
4481,127,128,128,119,128,128,127,130,0
4485,129,130,126,122,128,129,128,133,0
4493,129,128,128,124,128,127,128,130,0
4497,127,128,126,127,128,125,127,126,0
4501,126,127,128,135,127,127,128,130,0
4504,129,128,128,127,128,127,128,132,0
4507,130,130,127,130,127,126,128,126,0
4511,127,127,129,134,126,126,128,121,0
4515,126,126,129,138,126,127,127,127,0
4517,129,128,126,122,128,129,128,131,0
4520,130,128,128,124,128,129,128,130,0
4523,127,128,126,133,126,125,129,121,0
4527,126,125,129,137,125,125,128,133,0
4531,129,129,127,122,128,129,127,135,0
4535,129,130,126,119,128,129,126,128,0
4538,127,127,126,122,128,128,125,127,0
4541,126,129,128,121,128,127,125,125,0
4545,129,128,126,125,127,131,128,125,0
4548,128,125,130,139,126,129,127,132,0
4550,128,127,126,123,128,127,128,129,0
4554,125,127,128,127,128,128,127,127,0
4566,129,128,128,130,128,126,128,133,0
4570,130,128,126,124,127,128,127,126,0
4574,128,129,127,126,127,126,126,121,0
4577,126,126,130,139,128,129,128,127,0
4581,127,128,128,124,128,128,128,133,0
4584,130,128,127,122,128,127,127,128,0
4587,128,127,129,134,128,129,127,126,0
4591,126,127,128,129,128,128,128,128,0
4601,127,128,126,125,127,128,127,131,0
4605,130,128,128,124,128,128,128,132,0
4608,128,130,129,135,127,126,126,122,0
4611,126,127,128,124,128,127,126,126,0
4615,128,127,126,129,127,127,128,132,0
4634,130,128,128,127,128,125,128,133,0
4646,127,126,128,136,125,124,129,124,0
4651,126,126,129,133,125,128,130,122,0
4655,126,127,128,122,128,129,128,131,0
4658,130,127,125,121,127,129,128,134,0
4662,128,127,126,123,128,129,127,131,0
4667,127,129,128,122,128,130,126,122,0
4670,127,128,126,123,128,129,126,129,0
4675,129,128,127,124,128,128,127,130,0
4679,128,128,129,124,128,127,129,121,0
4683,126,125,129,139,125,127,130,120,0
4686,126,128,126,122,128,127,127,128,0
4690,130,129,128,127,128,127,128,133,0
4693,129,127,129,125,128,127,126,129,0
4696,127,126,129,128,127,128,127,124,0
4700,124,128,129,128,127,126,127,131,0
4703,127,129,128,128,127,127,126,128,0
4706,128,126,126,127,126,125,126,125,0
4708,126,126,129,128,127,129,128,124,0
4714,126,127,126,134,127,130,129,126,0
4717,130,128,129,131,127,128,129,131,0
4722,129,127,126,127,127,126,128,128,0
4726,126,128,129,128,128,130,128,128,0
4729,126,125,130,140,125,126,130,124,0
4732,128,126,126,122,128,128,127,131,0
4736,129,129,128,126,127,127,126,124,0
4739,126,127,127,125,128,128,126,125,0
4744,126,128,127,124,127,128,128,131,0
4751,129,130,128,124,128,125,127,130,0
4755,129,128,128,124,128,130,126,121,0
4758,125,127,129,134,127,126,128,124,0
4761,127,127,128,127,128,129,128,131,0
4765,129,129,128,122,127,125,127,132,0
4768,129,128,126,123,128,128,127,123,0
4772,125,126,129,136,126,125,129,120,0
4777,125,125,128,135,125,130,128,134,0
4781,129,129,128,121,128,129,127,133,0
4784,129,127,127,123,128,131,128,131,0
4788,127,127,126,130,128,130,126,123,0
4791,125,128,128,129,128,128,127,130,0
4795,129,128,128,122,128,125,127,133,0
4798,130,128,128,124,128,129,129,127,0
4804,128,127,126,120,128,129,128,125,0
4808,125,125,129,140,126,125,125,129,0
4810,128,127,126,125,129,128,127,131,0
4813,128,128,128,130,128,124,126,132,0
4817,128,127,128,128,128,125,128,125,0
4820,126,127,126,129,127,129,126,123,0
4823,129,128,125,124,128,128,129,131,0
4827,129,129,128,128,127,128,127,131,0
4830,127,128,128,135,126,127,129,122,0
4834,126,126,129,137,127,127,129,123,0
4836,127,129,127,122,128,129,128,133,0
4839,129,130,128,126,128,126,126,124,0
4843,128,128,129,132,128,129,126,128,0
4846,126,127,126,124,128,128,127,130,0
4849,128,127,126,126,127,129,128,129,0
4855,129,129,128,127,128,127,126,126,0
4860,126,128,127,140,125,127,128,122,0
4865,126,125,130,137,126,129,129,124,0
4871,126,130,126,124,128,127,126,132,0
4877,129,127,128,124,127,130,128,131,0
4880,128,130,128,126,128,128,126,126,0
4883,126,127,128,122,128,130,126,129,0
4886,127,128,128,124,128,126,127,132,0
4889,129,130,126,126,128,127,127,128,0
4893,128,127,128,126,128,130,126,120,0
4896,126,125,130,137,125,126,130,122,0
4899,126,125,128,127,128,130,128,132,0
4902,129,129,126,125,127,127,129,129,0
4906,128,129,126,131,126,127,129,129,0
4909,125,127,128,123,128,130,126,124,0
4913,127,128,126,124,126,131,129,122,0
4916,129,127,128,133,127,130,130,126,0
4919,128,127,126,127,126,129,128,124,0
4923,126,127,129,134,127,129,128,126,0
4926,127,127,128,130,127,128,127,127,0
4930,128,129,128,129,127,129,128,126,0
4935,128,128,129,132,126,127,128,130,0
4939,127,127,128,127,127,127,126,125,0
4943,126,128,128,124,127,130,128,129,0
4946,129,128,127,120,128,129,129,133,0
4950,129,130,128,127,128,132,126,125,0
4953,126,127,129,132,127,127,128,121,0
4957,126,126,129,135,126,128,126,129,0
4960,128,130,127,125,128,131,127,131,0
4970,129,127,125,124,128,126,127,130,0
4974,125,129,128,129,129,130,127,122,0
4979,126,127,127,134,127,126,127,127,0
4984,129,127,128,129,128,129,128,126,0
4988,129,126,128,130,128,126,127,129,0
4991,128,128,128,128,128,125,128,127,0
4995,126,128,128,132,127,125,127,128,0
4999,129,126,125,128,128,128,128,130,0
5005,129,128,128,126,127,128,126,122,0
5009,127,126,129,139,127,125,129,122,0
5012,126,125,128,137,125,126,128,132,0
5016,130,129,127,120,129,131,127,135,0
5019,129,130,128,119,128,129,125,129,0
5023,127,127,126,124,128,126,125,125,0
5026,126,127,128,122,127,125,128,130,0
5029,129,128,127,125,128,127,128,132,0
5033,129,130,128,128,128,126,127,127,0
5036,127,127,128,130,128,130,126,127,0
5044,126,126,126,126,129,126,127,125,0
5048,128,127,128,127,127,129,129,125,0
5051,129,127,128,126,128,127,127,125,0
5055,127,127,126,137,128,124,127,120,0
5058,124,126,129,127,127,128,127,128,0
5061,128,127,126,128,128,128,128,127,0
5065,128,127,126,127,128,127,127,124,0
5068,126,129,128,132,128,128,128,121,0
5080,124,126,128,130,128,129,128,128,0
5084,128,127,126,125,127,129,129,129,0
5088,129,126,127,127,128,129,126,124,0
5091,128,128,129,140,125,129,130,125,0
5095,125,123,128,136,126,125,128,125,0
5098,128,129,127,122,129,127,127,132,0
5102,128,127,128,122,128,128,125,125,0
5106,128,129,128,122,128,131,127,124,0
5117,127,128,128,123,128,130,128,124,0
5120,127,130,126,124,129,126,126,130,0
5124,129,128,126,129,127,125,126,129,0
5127,126,129,129,137,129,126,126,124,0
5130,126,126,129,136,126,126,129,122,0
5134,127,126,129,123,128,129,127,134,0
5137,129,130,126,120,128,130,127,132,0
5140,129,129,127,123,130,130,127,132,0
5143,126,127,126,122,128,127,126,126,0
5147,127,127,126,126,128,130,128,129,0
5150,129,128,128,127,128,128,128,131,0
5153,128,129,126,127,127,127,128,128,0
5157,127,128,128,132,127,130,127,124,0
5162,127,128,126,124,128,127,126,127,0
5165,128,127,126,129,128,129,128,129,0
5168,128,128,127,136,126,125,131,127,0
5172,126,123,129,137,126,128,130,123,0
5175,126,127,127,124,130,130,129,128,0
5178,129,127,125,123,128,127,128,133,0
5188,127,129,128,123,128,128,127,128,0
5192,127,127,125,124,128,128,126,123,0
5196,126,127,128,128,127,127,127,130,0
5199,129,127,128,131,127,128,128,132,0
5202,129,128,127,129,127,130,128,125,0
5223,127,127,126,130,127,131,127,128,0
5228,127,127,126,126,127,126,126,127,0
5233,129,129,127,127,128,128,128,129,0
5241,128,127,127,128,126,125,128,122,0
5247,125,128,130,139,126,128,128,124,0
5251,126,125,129,138,126,130,128,131,0
5254,129,127,126,122,128,129,128,131,0
5258,129,128,128,123,128,127,127,132,0
5261,128,128,126,125,126,124,127,127,0
5265,127,128,128,127,126,127,127,129,0
5268,129,127,128,127,128,128,128,130,0
5271,129,127,126,127,128,131,128,129,0
5275,127,128,126,127,127,126,127,126,0
5280,126,126,128,124,126,126,127,125,0
5283,128,127,126,127,127,129,129,123,0
5286,128,127,126,125,128,129,130,124,0
5290,127,124,128,138,125,127,131,124,0
5293,126,124,128,136,128,130,128,130,0
5296,127,128,128,124,128,129,127,132,0
5299,129,130,128,124,128,131,128,129,0
5303,127,129,128,128,128,127,126,123,0
5306,126,127,126,125,127,129,128,126,0
5309,128,127,128,129,128,125,129,128,0
5313,129,128,128,123,127,129,128,128,0
5316,128,127,127,127,128,125,128,125,0
5320,125,127,129,131,127,127,128,125,0
5322,128,127,128,127,127,126,129,128,0
5325,129,129,128,127,128,127,127,127,0
5328,127,127,128,126,128,128,127,127,0
5331,125,127,129,132,128,125,128,126,0
5333,128,129,126,124,127,125,128,131,0
5336,129,127,128,123,128,128,127,130,0
5344,127,129,129,122,128,126,127,121,0
5348,124,126,130,136,124,128,131,125,0
5351,126,125,129,137,127,132,128,133,0
5356,129,129,128,122,128,128,126,130,0
5361,128,128,126,122,128,130,127,131,0
5367,128,127,128,125,128,128,125,127,0
5371,127,128,127,129,128,130,128,130,0
5375,130,129,127,124,128,127,127,129,0
5378,128,129,126,127,128,130,128,127,0
5381,126,127,126,123,128,131,125,119,0
5385,126,127,128,125,127,131,129,129,0
5388,129,127,128,127,127,127,127,126,0
5391,128,127,128,126,127,125,128,131,0
5395,126,126,129,137,125,126,131,124,0
5398,126,125,128,135,130,131,128,130,0
5401,129,129,127,122,128,126,127,130,0
5404,127,130,128,131,128,129,128,129,0
5408,125,128,126,127,127,127,127,126,0
5411,125,128,128,130,128,126,127,129,0
5418,129,127,126,126,127,129,128,127,0
5421,129,128,127,125,127,129,128,129,0
5425,127,128,129,133,127,127,128,129,0
5428,127,129,129,136,127,131,128,133,0
5432,130,130,127,124,128,128,126,128,0
5435,129,128,126,122,128,128,127,128,0
5438,127,127,129,138,124,126,130,125,0
5441,125,125,128,132,128,128,127,130,0
5445,127,129,126,124,128,128,126,130,0
5448,129,127,125,128,128,128,126,127,0
5451,127,127,126,126,129,127,127,124,0
5458,127,126,126,127,127,130,130,128,0
5462,129,128,128,126,128,124,127,130,0
5467,129,129,128,124,128,125,126,125,0
5470,127,125,130,137,126,128,128,121,0
5474,126,126,128,123,128,125,127,130,0
5484,129,128,127,126,129,128,127,128,0
5488,127,127,128,127,129,126,126,126,0
5480,129,130,128,128,128,127,126,128,0
5494,126,128,129,130,128,128,128,128,0
5498,129,128,128,127,128,125,127,132,0
5501,128,128,128,126,127,125,127,131,0
5505,127,128,129,130,128,127,126,127,0
5508,126,123,128,136,125,127,131,124,0
5511,127,130,126,123,128,128,127,129,0
5515,129,128,127,121,129,127,127,133,0
5518,126,127,129,123,128,129,128,124,0
5529,126,127,128,128,128,128,126,128,0
5532,129,128,126,127,128,130,128,126,0
5538,129,128,128,125,127,129,127,132,0
5549,128,130,126,121,127,129,128,121,0
5553,125,126,129,137,125,127,128,125,0
5556,127,128,126,122,128,128,126,132,0
5560,130,128,125,121,129,126,127,131,0
5563,128,127,128,124,128,130,129,120,0
5567,127,127,128,131,128,126,129,130,0
5570,128,128,128,128,128,125,127,127,0
5574,129,129,128,130,128,125,127,127,0
5577,127,129,127,123,128,125,126,121,0
5579,126,126,129,135,128,126,129,129,0
5582,128,128,128,123,128,127,127,125,0
5586,129,129,126,128,127,128,127,129,0
5589,127,128,127,127,127,126,126,125,0
5596,127,127,126,126,128,127,130,127,0
5599,126,126,129,132,126,130,128,127,0
5602,129,129,125,120,128,130,127,128,0
5608,128,127,126,121,127,128,126,128,0
5613,126,126,128,124,128,130,126,127,0
5616,127,126,128,127,128,130,130,129,0
5619,129,128,127,126,128,126,128,130,0
5623,127,128,128,127,128,125,126,125,0
5627,127,126,129,134,129,125,127,125,0
5630,127,127,126,126,128,128,128,132,0
5633,130,130,127,125,128,127,127,126,0
5636,128,127,128,135,127,128,127,129,0
5639,126,125,129,138,124,126,130,124,0
5643,126,125,129,136,128,128,126,128,0
5646,129,130,128,126,128,129,128,129,0
5650,129,129,128,123,129,128,127,132,0
5699,127,127,126,124,128,126,126,126,0
5710,127,127,128,126,127,130,129,129,0
5718,129,128,127,129,127,128,128,129,0
5726,128,130,126,125,127,127,127,127,0
5730,126,128,128,133,128,126,126,126,0
5768,127,127,129,127,127,125,126,127,0
5777,129,127,126,126,128,127,127,128,0
5787,128,127,126,127,127,127,127,124,0
5838,127,127,126,130,127,126,126,121,0
5853,123,128,128,123,128,127,127,127,0
5859,129,127,126,124,128,128,127,129,0
5871,128,127,128,133,128,127,128,128,0
5877,126,128,128,128,128,128,126,125,0
5883,126,127,126,138,126,128,127,123,0
5889,127,125,129,135,128,129,128,132,0
5893,129,128,126,125,128,131,128,129,0
5896,127,128,127,124,128,125,129,122,0
5899,125,124,129,135,126,128,127,130,0
5903,129,130,126,122,129,128,127,133,0
5906,129,128,126,123,128,130,129,131,0
5909,127,128,126,122,129,128,127,119,0
5913,125,127,126,124,129,127,128,131,0
5916,129,127,126,124,128,130,128,124,0
5919,128,127,126,126,127,126,126,127,0
5922,128,129,127,125,128,124,126,124,0
5926,126,126,127,124,127,130,128,126,0
5929,128,128,128,127,127,128,129,127,0
5932,128,127,129,128,128,129,128,125,0
5936,127,126,129,138,124,127,130,125,0
5939,126,123,129,137,126,126,126,129,0
5942,127,129,128,126,128,129,128,133,0
5949,128,127,128,125,128,131,125,125,0
5945,130,128,126,121,128,127,126,130,0
5952,126,126,127,127,127,128,126,128,0
5968,128,127,126,124,127,127,128,131,0
5973,129,129,125,128,127,127,127,127,0
5976,127,127,128,130,127,126,127,128,0
5980,126,127,129,135,127,127,126,125,0
5983,128,127,126,128,128,128,128,127,0
5986,129,126,129,139,125,129,130,123,0
6054,127,129,128,122,128,127,128,127,0
6040,128,129,126,125,128,128,128,128,0
6061,127,128,128,122,128,124,128,132,0
6067,130,129,126,126,128,128,128,130,0
6072,127,127,126,125,128,128,127,128,0
6105,127,126,129,129,128,130,126,121,0
6115,125,126,128,133,128,129,128,130,0
6123,129,128,128,124,127,129,129,129,0
6132,128,127,128,126,128,128,131,126,0
6137,126,123,130,134,125,126,130,122,0
6142,127,127,127,122,128,131,128,130,0
6147,129,129,128,123,130,130,129,132,0
6151,129,128,128,125,129,128,126,125,0
6154,127,127,129,134,127,126,126,127,0
6161,127,128,127,122,128,128,128,131,0
6165,129,128,126,125,128,130,126,126,0
6169,128,128,127,127,127,129,127,126,0
6173,127,129,129,126,129,127,127,126,0
6176,127,128,128,128,128,127,129,130,0
6179,129,128,126,126,127,124,127,129,0
6183,129,130,127,130,127,127,128,123,0
6186,126,125,129,137,125,126,129,122,0
6189,126,125,129,136,128,129,128,133,0
6193,130,128,128,121,128,126,129,134,0
6196,128,128,126,122,128,128,126,129,0
6199,126,127,127,128,129,125,126,121,0
6203,125,128,126,121,127,127,128,132,0
6206,129,128,126,122,127,129,127,130,0
6209,129,128,128,124,127,127,127,130,0
6213,127,129,128,127,128,126,126,127,0
6217,126,127,127,129,128,128,128,131,0
6222,129,128,128,127,128,127,126,128,0
6227,128,129,129,125,127,125,127,125,0
6231,124,125,129,137,126,127,130,123,0
6234,126,127,129,136,128,128,127,132,0
6237,129,129,126,122,128,127,128,133,0
6240,127,130,128,126,128,127,126,128,0
6243,127,127,126,125,128,130,128,127,0
6247,125,128,126,123,128,126,128,130,0
6250,129,130,128,129,128,125,127,129,0
6254,129,128,127,125,128,129,128,131,0
6257,126,128,128,128,127,128,128,119,0
6260,124,126,129,130,128,127,128,128,0
6264,129,129,128,123,127,126,127,128,0
6267,129,127,129,127,127,129,126,125,0
6309,127,128,128,126,127,126,127,122,0
6321,125,124,128,136,125,127,131,124,0
6330,127,127,128,123,129,129,127,129,0
6337,128,128,126,124,128,131,128,131,0
6344,128,127,126,124,128,130,127,130,0
6376,125,129,128,126,128,127,128,128,0
6385,128,128,126,127,128,128,128,131,0
6392,129,127,126,126,127,128,127,132,0
6397,129,128,129,128,128,125,127,127,0
6402,126,127,129,135,127,125,128,125,0
6407,128,126,126,126,128,129,129,125,0
6411,130,128,128,124,128,128,128,131,0
6414,128,129,127,123,127,126,126,127,0
6419,127,126,127,124,128,128,128,121,0
6425,128,127,129,130,127,125,128,132,0
6429,129,128,128,125,127,128,128,125,0
6432,128,127,126,127,128,128,126,128,0
6435,126,128,130,138,125,127,131,125,0
6438,127,125,129,137,128,131,129,130,0
6442,130,128,128,123,128,130,127,131,0
6445,128,129,126,125,128,128,127,131,0
6448,125,127,126,123,128,127,126,126,0
6451,127,129,127,134,127,127,127,129,0
6455,129,128,128,128,128,127,128,132,0
6458,129,127,128,126,128,127,127,123,0
6463,127,127,128,136,125,125,131,123,0
6469,126,125,129,136,125,125,127,132,0
6473,129,128,128,125,129,129,127,130,0
6477,128,127,127,127,129,132,127,125,0
6481,127,127,128,126,128,128,128,128,0
6484,125,127,128,128,128,128,129,128,0
6488,129,130,126,126,128,124,128,132,0
6491,129,129,126,125,128,130,127,126,0
6494,127,126,128,127,128,126,126,122,0
6498,127,127,128,122,128,126,129,128,0
6501,127,127,128,130,128,125,126,129,0
6504,128,129,128,127,128,125,126,121,0
6507,126,125,129,137,126,125,129,123,0
6511,126,125,129,136,125,128,128,133,0
6514,129,128,126,122,128,130,127,131,0
6517,129,127,126,122,128,130,128,130,0
6519,127,128,126,128,127,130,127,130,0
6522,126,125,129,126,128,127,127,129,0
6527,129,128,128,127,128,129,126,127,0
6533,128,128,126,126,127,128,126,124,0
6537,127,127,126,125,127,130,127,123,0
6540,127,126,126,127,127,125,126,129,0
6543,129,127,128,126,127,128,129,132,0
6546,129,128,128,126,126,127,127,129,0
6548,125,126,129,138,124,128,131,124,0
6551,125,124,129,137,126,126,130,122,0
6554,129,129,128,126,128,128,126,129,0
6557,129,129,128,124,130,129,126,127,0
6560,127,128,126,127,128,128,127,131,0
6563,125,127,128,122,128,130,128,128,0
6577,129,129,128,127,128,127,128,129,0
6581,129,128,126,124,128,127,126,128,0
6585,127,129,129,124,127,127,127,124,0
6588,126,127,126,126,127,125,128,130,0
6591,128,129,129,127,128,126,127,127,0
6595,128,127,126,131,126,129,128,130,0
6598,127,128,128,134,127,125,126,125,0
6601,124,127,126,126,127,127,130,121,0
6604,126,126,128,128,128,128,128,128,0
6608,128,128,126,123,128,131,128,132,0
6611,128,128,126,123,128,125,127,127,0
6614,127,127,128,127,127,125,128,121,0
6618,128,127,128,127,127,129,128,130,0
6620,129,128,127,127,127,125,128,128,0
6623,127,125,129,137,124,128,131,126,0
6626,126,125,129,136,126,128,128,128,0
6628,128,129,128,125,128,129,128,130,0
6633,129,129,127,122,128,130,128,131,0
6639,128,128,126,123,128,127,126,128,0
6644,127,127,128,125,127,125,127,120,0
6647,128,128,126,124,128,128,128,133,0
6650,129,128,126,124,128,127,126,128,0
6654,128,128,127,124,127,127,127,130,0
6657,127,128,128,129,128,125,128,126,0
6660,127,129,127,129,128,126,126,125,0
6664,129,128,129,127,128,125,127,128,0
6667,128,127,129,135,128,127,127,128,0
6670,127,127,129,136,129,125,127,121,0
6674,126,126,128,125,128,128,128,132,0
6677,129,128,126,128,128,127,127,127,0
6680,128,129,126,128,128,125,128,131,0
6684,126,126,129,135,127,126,129,123,0
6687,126,125,128,135,127,129,128,130,0
6689,129,127,126,122,128,129,128,134,0
6692,129,130,126,124,128,126,127,132,0
6696,126,127,129,125,128,126,126,127,0
6699,127,126,126,123,128,127,127,126,0
6702,129,126,128,127,128,128,127,125,0
6706,128,127,126,128,127,131,126,128,0
6709,127,128,129,131,129,127,126,127,0
6713,127,127,129,127,128,127,127,128,0
6716,129,128,128,126,127,128,128,129,0
6718,127,127,129,135,128,128,127,129,0
6721,126,127,129,138,124,127,130,124,0
6726,126,124,129,137,125,126,128,125,0
6729,130,129,126,123,128,127,125,135,0
6732,129,130,125,121,128,128,124,131,0
6736,126,130,128,124,129,130,125,124,0
6744,126,128,128,126,128,128,127,130,0
6748,130,127,126,131,127,129,130,123,0
6751,129,129,128,130,128,127,126,128,0
6755,127,128,128,129,128,128,127,125,0
6758,126,127,127,130,128,127,128,128,0
6761,128,128,128,124,127,127,129,132,0
6769,129,129,128,128,127,126,127,130,0
6773,127,128,127,135,127,128,126,125,0
6777,124,126,128,120,128,127,128,129,0
6782,129,128,126,128,127,129,126,124,0
6786,128,127,128,129,128,127,126,131,0
6789,125,129,126,121,129,129,128,121,0
6792,126,125,129,138,126,128,130,125,0
6795,128,126,128,129,128,130,128,133,0
6798,127,130,128,121,129,128,127,132,0
6801,128,126,126,121,128,128,127,129,0
6805,126,126,129,134,128,131,127,130,0
6808,129,127,128,129,129,128,127,126,0
6811,129,129,126,127,127,130,127,129,0
6816,127,128,128,127,128,126,127,130,0
6820,127,127,126,124,127,126,128,121,0
6824,127,128,127,123,128,127,129,130,0
6828,130,130,126,129,127,127,127,129,0
6831,128,128,128,132,128,129,128,121,0
6834,127,127,126,124,128,127,129,121,0
6838,128,127,126,126,127,129,127,126,0
6841,128,127,129,127,128,126,126,124,0
6844,128,125,129,134,126,128,129,123,0
6848,126,125,129,134,126,126,131,123,0
6855,127,127,127,122,129,129,129,133,0
6858,129,130,128,122,129,127,127,133,0
6862,129,127,128,122,128,127,128,131,0
6865,127,127,126,124,128,128,127,130,0
6868,126,129,127,125,127,128,127,129,0
6871,129,128,128,126,128,128,128,131,0
6875,128,129,128,128,128,127,126,128,0
6878,125,126,128,126,127,130,127,121,0
6881,127,128,127,127,128,128,128,129,0
6884,129,129,129,127,128,130,127,123,0
6886,126,128,126,122,128,126,128,123,0
6889,126,125,129,135,124,127,130,123,0
6892,126,125,128,134,128,126,128,129,0
6895,129,129,128,122,128,131,127,132,0
6899,128,129,128,126,128,131,126,129,0
6903,126,129,128,136,127,130,127,126,0
6907,127,128,126,124,128,126,128,126,0
6910,129,129,126,123,128,130,128,128,0
6914,129,128,126,121,128,126,125,127,0
6918,125,129,129,123,127,126,127,127,0
6920,128,127,129,126,127,127,127,129,0
6924,129,127,125,126,128,127,127,127,0
6928,129,129,128,126,127,130,123,121,0
6931,127,127,128,132,129,125,125,126,0
6934,127,127,128,128,126,127,127,128,0
6937,129,128,128,125,128,127,129,129,0
6940,128,128,128,126,129,130,128,122,0
6943,127,126,128,135,127,125,125,119,0
6946,126,125,129,138,124,126,131,124,0
6951,128,126,126,123,128,128,128,132,0
6956,129,126,128,125,128,128,129,131,0
6961,127,127,129,126,127,123,127,128,0
6967,125,128,129,130,128,128,127,129,0
6970,129,127,128,130,127,128,125,130,0
6973,128,128,126,120,128,128,125,126,0
6976,127,126,128,132,129,130,127,123,0
6979,127,127,128,128,128,126,126,122,0
6981,128,130,127,126,127,126,126,128,0
6985,129,127,126,126,128,128,126,131,0
6988,126,125,128,138,125,126,131,124,0
6991,126,123,129,136,126,125,126,132,0
6994,129,128,126,122,128,131,129,131,0
6997,129,129,127,129,130,130,129,131,0
7000,128,128,128,128,128,125,127,127,0
7002,126,129,128,131,128,124,127,128,0
7006,128,129,128,129,128,127,128,132,0
7009,129,128,126,126,128,127,127,131,0
7011,128,128,129,128,128,126,125,120,0
7015,127,128,126,136,127,130,128,127,0
7018,128,129,128,130,127,128,129,128,0
7021,129,128,128,124,128,127,127,128,0
7024,128,126,130,139,125,127,128,122,0
7027,126,125,129,137,125,126,127,128,0
7031,127,129,128,126,128,128,129,134,0
7034,129,129,127,124,128,127,126,127,0
7037,128,129,128,125,128,128,126,123,0
7041,126,128,127,123,129,127,127,129,0
7045,128,129,126,123,128,126,126,129,0
7048,129,128,126,124,128,125,127,129,0
7055,128,128,129,121,128,130,126,128,0
7059,127,128,128,123,128,125,126,128,0
7063,127,128,126,126,128,129,128,129,0
7070,129,128,128,127,128,126,127,130,0
7075,128,127,129,128,128,130,125,124,0
7078,126,123,129,136,125,126,131,124,0
7081,126,126,128,134,126,131,128,130,0
7085,129,128,128,126,128,128,128,132,0
7088,128,126,127,124,128,130,128,131,0
7091,124,128,126,128,128,129,127,129,0
7094,128,128,128,125,127,127,128,126,0
7098,130,128,126,123,127,130,127,132,0
7100,129,129,128,130,128,126,126,124,0
7104,127,128,129,129,128,125,126,125,0
7107,127,127,126,129,127,126,127,128,0
7109,127,128,128,130,128,125,128,131,0
7112,128,129,129,136,127,124,126,122,0
7115,127,128,128,128,127,126,127,121,0
7118,125,126,128,126,127,128,128,130,0
7122,130,129,126,124,127,127,128,128,0
7125,129,128,126,126,129,127,129,122,0
7128,127,126,129,136,125,127,131,125,0
7131,127,125,128,129,128,130,128,132,0
7134,130,129,126,122,129,128,128,130,0
7137,129,129,126,123,127,130,129,132,0
7140,128,128,126,132,128,127,127,127,0
7142,126,127,126,124,128,126,127,128,0
7145,129,130,127,130,128,127,127,126,0
7147,128,129,129,129,128,127,127,125,0
7151,126,128,128,129,128,126,129,119,0
7157,126,125,129,135,127,131,128,126,0
7160,129,127,126,123,128,128,127,133,0
7163,128,130,128,125,127,130,128,128,0
7167,127,127,128,135,127,126,129,119,0
7170,125,128,128,128,128,127,127,130,0
7173,129,130,127,124,129,127,127,130,0
7178,128,127,129,128,127,125,128,125,0
7184,127,128,128,126,127,129,127,126,0
7186,126,127,128,128,126,130,128,129,0
7189,128,127,126,128,127,129,128,132,0
7193,129,128,128,128,126,125,127,125,0
7196,127,125,129,139,126,128,131,122,0
7199,126,125,129,137,125,126,129,132,0
7203,129,128,126,123,128,128,129,134,0
7206,129,128,127,120,128,128,128,133,0
7209,126,130,128,120,128,131,126,126,0
7212,127,127,129,134,126,125,130,121,0
7215,128,127,127,122,128,127,127,130,0
7218,127,130,128,127,127,127,126,125,0
7221,128,127,126,121,128,128,126,123,0
7224,127,129,129,127,128,125,127,128,0
7227,128,127,128,130,128,128,129,130,0
7231,129,128,128,133,128,127,129,128,0
7234,128,128,128,131,127,129,126,122,0
7237,126,126,130,138,125,126,131,124,0
7240,126,126,127,126,129,129,128,129,0
7243,129,128,126,126,128,131,128,133,0
7248,129,129,126,123,128,128,126,127,0
7251,126,126,127,127,127,131,128,127,0
7256,128,128,128,125,127,127,129,131,0
7262,130,128,128,128,128,127,126,128,0
7265,128,127,128,130,127,128,127,125,0
7268,127,127,128,127,128,126,127,126,0
7271,127,128,127,121,128,127,127,129,0
7277,129,129,127,124,128,127,125,129,0
7281,128,128,126,127,125,126,130,126,0
7283,126,124,129,136,124,126,129,120,0
7286,127,127,128,125,130,131,128,131,0
7289,129,130,126,122,128,128,127,128,0
7292,129,128,127,125,128,127,125,129,0
7296,127,127,128,124,127,127,128,128,0
7300,126,129,128,130,128,126,127,128,0
7303,128,129,126,126,127,128,129,129,0
7306,128,128,126,126,127,128,126,124,0
7311,127,128,129,124,128,125,126,122,0
7313,126,128,126,125,127,124,126,125,0
7317,129,128,128,126,125,125,128,124,0
7322,128,125,130,137,125,127,129,124,0
7325,126,126,128,136,129,130,129,130,0
7328,125,128,126,124,129,128,128,129,0
7330,129,127,128,128,128,126,127,132,0
7335,127,127,127,124,128,126,126,129,0
7338,127,126,126,124,129,126,126,125,0
7341,126,128,128,122,128,126,127,131,0
7345,129,131,128,123,128,129,125,128,0
7348,128,128,128,125,127,129,127,125,0
7351,127,128,129,128,128,125,128,126,0
7355,127,127,128,125,128,126,129,129,0
7360,129,128,127,130,128,128,127,128,0
7364,128,127,128,130,127,127,128,129,0
7369,127,128,129,138,125,127,131,124,0
7373,126,124,129,137,125,125,129,124,0
7378,128,131,126,124,128,128,127,128,0
7382,129,129,127,122,128,130,128,132,0
7384,126,129,127,125,128,126,126,126,0
7387,125,126,128,125,128,128,127,125,0
7390,129,127,128,128,127,126,127,128,0
7393,129,128,127,128,127,131,127,121,0
7396,125,127,128,126,127,127,126,128,0
7399,126,127,128,127,128,128,127,125,0
7401,128,128,128,126,128,127,126,127,0
7406,129,128,128,128,128,124,125,129,0
7410,128,127,129,129,128,131,125,126,0
7414,126,127,129,138,124,127,130,125,0
7419,127,127,129,130,128,128,128,132,0
7423,129,129,127,127,128,126,126,130,0
7426,127,127,128,127,128,126,126,125,0
7429,127,126,128,127,128,128,127,123,0
7432,128,129,126,122,128,129,126,129,0
7435,129,127,128,124,128,129,127,126,0
7439,127,127,129,135,125,125,129,122,0
7442,126,126,129,136,127,126,129,121,0
7446,127,128,125,120,129,129,127,131,0
7449,129,127,126,122,127,130,128,128,0
7454,127,127,126,121,128,128,126,130,0
7457,127,128,129,126,128,130,129,123,0
7460,127,129,128,129,129,127,126,129,0
7464,129,129,126,123,128,128,127,132,0
7469,128,130,126,124,128,126,129,126,0
7475,126,127,129,133,128,125,128,120,0
7480,126,126,126,123,128,130,129,127,0
7482,129,128,128,126,128,129,127,131,0
7485,128,127,128,137,127,129,129,124,0
7488,126,123,128,136,124,127,130,125,0
7491,126,124,129,128,128,128,129,129,0
7494,129,128,125,127,129,129,127,131,0
7497,129,127,128,127,129,128,128,125,0
7500,127,126,128,126,128,131,126,124,0
7503,127,127,125,125,128,128,128,132,0
7506,129,128,128,122,128,127,126,132,0
7509,129,128,126,124,126,128,127,128,0
7512,127,128,126,131,128,126,127,128,0
7517,127,127,126,124,128,128,128,129,0
7520,129,128,128,123,128,126,128,132,0
7523,129,128,127,132,128,125,127,125,0
7526,125,129,129,137,126,125,130,123,0
7529,126,124,129,139,126,127,127,129,0
7531,129,126,126,126,128,127,128,127,0
7536,128,128,128,129,128,128,127,129,0
7538,126,125,129,137,126,125,129,122,0
7541,125,125,129,126,128,128,127,132,0
7544,129,130,125,122,128,128,129,129,0
7547,128,128,127,124,128,127,127,130,0
7550,127,128,128,129,128,126,126,128,0
7554,125,126,128,128,128,127,127,129,0
7557,129,128,127,129,128,127,129,129,0
7560,129,129,128,124,128,127,126,128,0
7566,126,127,128,129,128,126,126,123,0
7570,126,128,128,138,126,128,127,125,0
7574,129,129,127,128,127,128,127,132,0
7578,126,128,126,123,128,126,126,126,0
7583,127,128,126,122,129,128,126,127,0
7588,125,125,129,138,125,128,131,125,0
7593,128,126,128,125,128,127,126,131,0
7596,127,127,128,121,128,127,125,133,0
7599,127,128,128,125,128,131,128,128,0
7602,126,127,126,128,127,130,129,127,0
7605,128,128,128,126,128,128,128,129,0
7608,129,127,128,128,128,129,128,127,0
7612,128,126,126,124,127,130,127,120,0
7618,124,125,129,134,127,126,129,128,0
7621,129,129,127,122,128,126,127,133,0
7623,130,128,126,126,128,126,125,129,0
7627,128,128,127,137,126,124,125,123,0
7630,126,125,129,139,126,126,130,125,0
7633,127,124,129,132,128,130,128,133,0
7638,130,129,126,122,128,126,129,132,0
7641,126,127,126,123,128,126,129,128,0
7645,126,128,128,126,128,128,127,126,0
7648,128,127,128,125,128,128,129,128,0
7650,130,129,128,128,128,128,128,132,0
7653,128,127,129,134,129,126,126,130,0
7657,127,126,126,127,128,128,128,127,0
7660,128,127,128,135,127,128,129,130,0
7664,129,128,126,127,128,129,127,125,0
7667,128,127,129,134,127,127,129,123,0
7671,126,125,129,135,125,126,131,125,0
7681,127,126,127,122,128,131,126,134,0
7684,129,130,127,119,128,130,127,131,0
7689,128,129,125,120,129,132,127,128,0
7693,127,128,126,126,128,130,127,130,0
7700,128,128,126,125,128,127,127,130,0
7703,129,129,128,127,128,128,126,130,0
7707,128,126,128,128,128,128,127,128,0
7710,127,129,128,138,127,126,128,126,0
7713,127,127,128,124,128,126,127,129,0
7716,129,129,128,126,128,128,129,128,0
7720,128,128,127,126,128,128,129,122,0
7723,127,126,129,138,126,125,129,123,0
7726,126,128,126,123,128,129,127,130,0
7730,129,127,126,125,129,131,129,131,0
7733,128,128,126,123,128,125,127,131,0
7737,127,129,128,130,127,129,130,126,0
7740,127,127,126,130,128,125,128,125,0
7743,129,127,128,130,127,131,129,131,0
7747,129,130,129,130,129,127,126,126,0
7750,127,127,129,139,125,126,130,122,0
7753,125,125,129,137,128,130,127,132,0
7756,129,129,125,120,128,130,128,132,0
7759,128,128,126,124,129,126,126,131,0
7763,128,127,128,125,128,129,129,125,0
7766,127,126,129,130,128,129,128,127,0
7769,129,128,128,126,128,127,127,127,0
7773,128,128,128,129,127,127,128,122,0
7776,128,127,129,136,127,130,127,126,0
7779,127,126,128,124,127,129,128,127,0
7782,128,127,128,128,127,128,129,128,0
7787,127,127,128,127,127,128,126,125,0
7790,126,125,129,137,126,126,130,124,0
7793,125,124,128,135,126,128,126,128,0
7797,128,128,125,122,129,132,129,132,0
7801,129,129,125,122,128,128,128,132,0
7806,128,127,128,122,128,128,125,127,0
7812,126,127,126,126,128,125,127,121,0
7818,128,129,128,129,128,128,127,127,0
7820,129,128,126,122,128,131,125,124,0
7824,127,128,128,125,128,126,128,123,0
7826,126,125,129,135,126,130,129,125,0
7829,129,128,126,121,128,128,128,128,0
7832,129,128,128,129,129,128,126,133,0
7835,128,127,126,126,128,125,128,126,0
7838,127,128,128,132,128,131,128,128,0
7841,128,129,128,127,127,127,129,130,0
7844,129,127,126,127,127,128,128,127,0
7846,127,127,129,139,126,125,128,121,0
7849,126,125,129,136,126,126,127,129,0
7851,128,127,126,124,127,131,129,133,0
7857,129,129,127,126,128,128,128,132,0
7860,126,127,129,126,128,125,125,126,0
7863,126,126,129,138,126,126,129,122,0
7866,126,127,128,123,128,129,127,130,0
7870,129,127,126,124,128,130,128,132,0
7873,128,129,126,125,127,129,128,122,0
7876,127,128,128,127,128,127,126,125,0
7880,128,127,126,122,128,127,128,129,0
7883,129,128,128,126,128,128,128,128,0
7886,128,128,128,129,128,124,128,121,0
7889,125,125,129,138,126,129,129,125,0
7892,127,125,128,127,129,127,127,130,0
7896,129,130,126,124,128,129,128,133,0
7899,129,128,127,123,128,128,126,126,0
7903,126,128,126,131,127,128,127,128,0
7908,127,126,128,127,128,127,127,129,0
7915,129,128,127,126,128,128,127,133,0
7918,128,128,128,136,126,126,128,124,0
7921,126,125,128,137,126,126,128,122,0
7923,127,128,126,120,128,129,128,133,0
7926,128,130,126,122,128,127,128,133,0
7929,127,128,126,124,128,129,127,125,0
7933,127,127,128,133,127,129,126,123,0
7938,127,129,126,120,128,127,125,128,0
7941,128,129,126,121,127,129,127,131,0
7943,128,127,126,122,128,127,128,122,0
7947,126,125,130,134,126,125,129,123,0
7950,127,125,128,126,128,131,126,133,0
7955,129,129,127,123,128,127,128,134,0
7957,129,128,126,122,128,127,125,129,0
7960,128,126,128,126,128,126,125,126,0
7963,127,126,127,124,127,127,126,127,0
7967,129,129,128,129,128,127,127,130,0
7971,128,126,128,127,127,126,125,127,0
7974,126,127,128,128,127,127,125,123,0
7987,126,127,128,129,127,127,127,129,0
7991,129,130,127,125,128,129,129,123,0
7999,128,126,129,129,128,126,128,127,0
8002,127,128,129,139,124,127,131,123,0
8006,126,124,127,137,125,126,129,125,0
8009,127,128,126,120,128,129,128,130,0
8014,127,129,128,123,128,128,127,127,0
8017,126,126,128,127,128,127,126,127,0
8020,125,126,128,126,129,130,128,125,0
8024,128,128,127,126,127,128,128,131,0
8027,129,131,128,128,129,126,127,132,0
8032,128,128,127,126,128,124,128,127,0
8039,126,127,128,131,127,130,130,126,0
8042,129,129,128,127,128,127,128,129,0
8047,128,127,126,129,127,128,126,129,0
8049,127,129,129,134,127,125,126,127,0
8053,127,127,129,134,129,125,129,126,0
8056,128,128,126,126,127,128,126,131,0
8059,129,128,127,128,128,129,126,129,0
8062,128,127,126,125,127,128,127,129,0
8065,127,127,129,134,127,126,126,127,0
8069,127,128,128,124,127,129,128,132,0
8072,129,128,128,124,127,127,129,130,0
8075,127,128,128,121,128,126,125,121,0
8078,126,122,128,135,125,128,131,124,0
8081,127,126,128,136,125,130,128,130,0
8084,129,129,127,129,128,131,128,131,0
8086,128,128,126,120,128,128,127,131,0
8089,126,127,128,122,128,128,127,126,0
8091,128,128,128,125,127,127,127,129,0
8094,128,130,128,125,128,127,127,129,0
8098,128,128,128,131,127,130,128,128,0
8100,127,126,128,137,124,127,129,122,0
8103,126,128,128,129,128,127,127,133,0
8106,129,129,128,125,127,130,129,128,0
8109,128,128,127,123,127,130,128,128,0
8111,127,127,127,131,128,126,128,127,0
8114,127,128,128,131,128,126,128,127,0
8117,129,128,126,130,127,127,128,130,0
8121,128,128,129,133,127,128,127,128,0
8124,125,126,129,137,125,127,129,122,0
8128,126,125,129,138,126,125,128,130,0
8131,129,129,127,123,128,127,127,129,0
8137,128,127,126,125,128,128,127,125,0
8142,127,127,128,126,126,127,129,121,0
8146,126,125,129,137,126,127,127,131,0
8150,129,129,128,122,128,128,127,132,0
8153,128,131,128,125,129,128,126,129,0
8156,126,127,128,124,128,128,125,127,0
8159,127,128,128,123,128,128,128,127,0
8163,129,129,128,126,127,128,125,129,0
8166,128,128,126,125,128,129,127,123,0
8170,127,126,129,137,125,128,131,124,0
8173,126,125,129,139,127,131,129,129,0
8177,129,128,126,127,128,130,129,129,0
8180,129,128,126,124,129,127,126,126,0
8184,127,126,128,124,128,127,128,128,0
8188,126,127,126,124,128,129,128,124,0
8191,128,126,128,124,127,128,128,127,0
8195,128,128,128,125,127,130,126,129,0
8199,126,128,128,127,128,125,126,126,0
8204,126,127,128,138,125,126,128,124,0
8207,126,130,128,131,128,127,127,129,0
8211,129,129,126,122,128,126,125,128,0
8215,127,127,128,127,129,128,129,120,0
8218,126,125,129,134,128,128,127,130,0
8222,129,130,126,124,128,129,127,129,0
8225,128,128,126,124,128,131,127,132,0
8229,126,128,128,125,129,126,126,128,0
8234,125,125,129,137,126,126,126,126,0
8237,128,128,128,122,128,127,127,129,0
8240,129,128,127,121,128,130,126,130,0
8243,128,128,127,129,128,125,127,127,0
8247,126,127,128,125,127,126,126,126,0
8254,128,127,127,129,128,127,127,129,0
8257,128,128,128,129,128,128,126,126,0
8260,127,127,130,137,126,126,130,125,0
8264,125,124,129,137,125,126,128,126,0
8267,128,128,126,123,128,128,127,131,0
8270,129,127,128,127,128,131,127,129,0
8273,128,127,128,124,129,126,126,127,0
8277,127,126,128,124,127,127,128,126,0
8286,128,128,126,127,128,124,127,127,0
8291,129,128,128,131,128,127,127,128,0
8294,127,127,126,129,128,128,126,131,0
8298,125,124,129,138,125,126,130,122,0
8301,126,127,128,124,128,128,127,130,0
8305,130,128,128,129,128,128,126,129,0
8308,128,129,128,128,128,128,126,130,0
8311,127,127,126,126,128,131,125,126,0
8315,127,128,128,129,127,128,129,121,0
8318,129,127,127,130,128,126,127,127,0
8321,128,127,126,129,128,128,127,128,0
8326,127,126,126,126,127,127,128,124,0
8329,126,127,128,128,127,128,128,126,0
8332,129,129,127,130,127,127,127,127,0
8336,127,127,128,131,129,127,127,130,0
8339,127,127,128,123,129,127,127,127,0
8342,127,128,126,134,128,126,128,130,0
8345,128,128,129,138,126,126,127,123,0
8349,128,126,128,136,127,126,129,125,0
8352,127,126,129,135,127,127,129,124,0
8355,127,128,127,121,128,129,127,132,0
8359,129,128,126,121,128,131,128,130,0
8364,129,128,126,121,128,129,126,130,0
8368,126,128,127,123,128,127,126,128,0
8374,127,127,128,126,128,129,128,127,0
8378,129,128,128,126,128,128,127,131,0
8381,129,129,128,127,127,128,127,129,0
8385,127,128,129,132,128,127,126,124,0
8388,124,127,128,127,127,125,128,129,0
8391,129,128,127,128,128,124,128,125,0
8395,127,126,129,138,126,129,130,124,0
8398,126,126,128,134,126,126,130,124,0
8402,126,125,128,128,128,132,127,131,0
8406,129,128,125,122,128,129,127,131,0
8409,129,127,125,120,127,130,128,129,0
8413,127,128,129,121,129,127,126,126,0
8417,125,128,128,124,128,131,128,130,0
8420,129,129,126,125,128,128,128,127,0
8423,129,128,126,128,129,127,126,125,0
8428,127,127,128,126,127,124,126,124,0
8431,126,127,129,134,128,126,128,128,0
8435,128,128,127,127,127,126,127,125,0
8438,129,129,128,124,127,129,126,130,0
8441,127,127,129,133,128,129,128,121,0
8444,126,128,129,139,125,128,130,123,0
8447,128,127,128,132,128,131,128,134,0
8451,129,128,127,120,128,129,125,128,0
8455,126,127,128,124,128,128,125,125,0
8457,124,128,129,123,128,127,128,126,0
8460,128,127,127,127,128,129,129,130,0
8463,128,127,128,127,127,128,128,126,0
8467,127,128,128,131,127,125,127,119,0
8470,126,126,129,137,125,126,130,125,0
8476,127,130,126,123,128,129,126,130,0
8482,130,129,126,121,128,129,127,129,0
8486,126,128,128,126,129,126,125,122,0
8490,126,127,126,121,127,131,128,129,0
8493,128,128,128,123,127,126,127,130,0
8496,129,128,126,123,128,131,128,132,0
8499,128,127,130,139,125,124,129,124,0
8504,126,125,129,137,125,125,128,127,0
8507,128,127,127,123,127,129,128,133,0
8511,130,128,127,125,128,127,129,123,0
8515,128,128,126,128,127,127,126,126,0
8518,127,126,129,129,127,127,126,127,0
8522,128,127,126,126,128,128,128,125,0
8525,129,129,126,124,128,127,128,129,0
8528,127,127,128,132,128,128,127,124,0
8532,127,127,127,127,128,125,127,128,0
8535,128,128,126,129,127,128,128,130,0
8539,128,128,128,128,128,128,129,130,0
8544,129,128,127,123,127,125,126,129,0
8547,127,127,127,124,128,131,128,121,0
8550,126,125,129,136,126,131,130,124,0
8554,128,126,129,134,125,128,129,127,0
8557,128,126,126,119,128,130,127,131,0
8560,128,127,127,121,128,127,127,131,0
8564,126,128,126,124,128,127,126,130,0
8567,130,130,126,125,128,127,127,130,0
8570,128,126,128,128,127,129,127,127,0
8574,127,126,128,129,128,127,129,123,0
8579,127,125,129,132,128,130,128,130,0
8582,129,128,126,121,128,130,128,132,0
8590,129,131,128,122,128,124,128,130,0
8594,127,129,126,123,128,126,125,125,0
8601,126,125,129,137,126,128,130,125,0
8606,128,129,126,123,129,129,128,130,0
8612,128,128,126,123,128,129,127,131,0
8616,127,128,128,127,127,125,126,126,0
8619,127,127,126,126,128,128,130,131,0
8623,129,130,127,130,128,127,128,127,0
8626,128,127,126,127,128,128,127,129,0
8629,127,128,128,131,127,128,129,121,0
8633,126,126,128,135,127,128,127,130,0
8636,129,127,128,123,127,129,127,128,0
8639,128,128,128,125,128,129,126,130,0
8642,127,126,128,132,128,127,127,127,0
8645,126,127,128,124,127,126,129,130,0
8648,129,128,128,124,128,127,126,128,0
8650,128,127,128,134,128,131,127,130,0
8654,127,126,128,135,125,126,131,124,0
8657,125,124,129,139,125,125,130,122,0
8659,127,128,127,127,129,131,127,130,0
8662,128,127,128,121,128,131,127,132,0
8666,128,128,128,120,127,128,125,125,0
8669,126,127,128,123,128,128,128,128,0
8672,128,128,127,123,128,128,127,131,0
8676,129,129,129,130,128,125,127,130,0
8679,126,127,126,132,127,126,127,130,0
8682,127,127,127,128,127,124,128,131,0
8685,129,128,128,130,128,126,127,129,0
8689,128,128,126,126,128,128,126,127,0
8693,127,129,129,131,127,128,127,124,0
8696,127,127,126,124,127,128,127,126,0
8699,127,129,126,125,127,128,128,130,0
8705,129,128,128,125,127,129,128,124,0
8709,127,126,129,133,126,125,128,124,0
8712,126,125,129,135,126,127,129,124,0
8715,128,129,127,120,128,129,126,130,0
8717,129,129,128,125,128,128,126,133,0
8720,128,127,128,124,128,131,129,129,0
8723,127,126,126,130,129,127,129,126,0
8725,128,127,126,127,128,129,127,130,0
8730,129,128,127,124,128,127,128,129,0
8733,128,129,126,124,128,125,126,128,0
8735,125,126,129,134,128,127,126,126,0
8738,128,127,128,128,128,129,130,129,0
8742,128,128,127,130,128,126,129,124,0
8745,128,127,128,128,126,125,129,124,0
8748,126,125,129,139,127,124,129,122,0
8751,127,128,126,118,128,127,126,132,0
8754,129,128,126,121,128,129,127,130,0
8756,128,127,128,123,128,126,125,128,0
8759,127,127,126,124,128,128,127,129,0
8762,127,128,126,127,129,128,129,129,0
8765,129,128,127,132,128,127,127,127,0
8768,128,128,127,132,125,126,129,124,0
8774,126,126,129,136,127,125,129,123,0
8777,127,126,126,121,128,127,129,128,0
8782,129,130,127,122,129,128,127,131,0
8786,128,128,126,123,128,128,127,132,0
8790,128,129,128,127,128,126,126,124,0
8793,127,127,127,128,128,129,129,127,0
8797,128,128,127,125,127,125,126,131,0
8801,128,128,128,129,128,129,126,125,0
8804,125,129,126,131,129,126,126,122,0
8808,126,127,128,126,127,126,127,128,0
8811,128,130,127,127,127,127,129,130,0
8817,128,127,128,127,127,130,129,124,0
8823,126,123,128,136,125,126,130,124,0
8827,126,125,128,121,129,131,129,131,0
8831,129,129,125,123,129,128,127,133,0
8834,128,129,128,123,128,132,128,132,0
8837,127,127,125,123,127,129,127,126,0
8840,126,128,126,130,128,129,129,124,0
8844,128,127,126,125,128,127,127,131,0
8847,128,130,127,125,127,125,126,129,0
8850,127,128,128,125,128,125,125,127,0
8854,126,126,128,127,128,125,125,128,0
8857,128,128,126,126,128,129,127,127,0
8859,128,127,128,127,127,130,128,124,0
8862,128,127,128,124,127,126,126,120,0
8866,125,124,129,140,124,126,130,123,0
8869,127,130,126,123,127,131,127,130,0
8872,128,128,125,126,128,130,128,132,0
8876,127,127,128,126,128,127,125,130,0
8884,127,127,127,125,128,126,127,127,0
8887,128,129,127,129,128,126,127,127,0
8891,129,127,126,128,128,130,127,126,0
8899,127,128,128,135,128,127,126,124,0
8905,126,128,127,130,128,126,127,131,0
8908,128,128,127,134,127,129,129,130,0
8912,129,129,128,128,127,125,127,125,0
8917,128,128,127,138,128,125,125,124,0
8920,126,127,128,127,128,125,128,120,0
8923,125,125,129,137,125,129,130,126,0
8930,127,130,125,122,129,128,128,131,0
8933,128,127,126,124,128,125,128,132,0
8938,126,128,126,120,128,126,127,129,0
8942,127,127,128,129,127,128,128,131,0
8948,129,128,127,127,128,128,128,131,0
8952,127,128,128,133,126,125,129,123,0
8956,126,124,129,136,125,127,131,125,0
8959,127,126,128,121,129,128,127,132,0
8962,129,128,128,125,129,130,126,131,0
8966,128,128,126,122,128,129,127,131,0
8969,127,127,126,122,128,125,126,124,0
8973,126,129,129,128,129,127,127,127,0
8976,129,128,128,124,128,130,126,126,0
8979,128,128,129,126,127,129,128,122,0
8983,127,127,128,124,127,130,127,119,0
8986,125,127,128,129,127,127,127,128,0
8989,129,127,127,129,128,127,127,127,0
8992,128,129,126,127,128,125,128,129,0
8995,127,127,127,127,129,128,129,124,0
8999,127,127,128,127,127,128,129,129,0
9006,128,128,127,127,127,124,129,125,0
9002,129,128,128,129,127,124,129,127,0
9009,127,124,129,135,124,127,129,123,0
9013,127,125,128,129,128,128,126,130,0
9016,130,130,128,120,128,128,125,129,0
9019,128,128,128,126,128,128,127,129,0
9022,127,127,126,126,128,125,128,128,0
9027,127,128,127,129,128,125,127,129,0
9030,130,127,126,127,128,128,128,129,0
9034,129,128,128,133,127,130,126,127,0
9037,127,128,128,122,126,128,126,126,0
9040,127,128,127,125,128,128,127,129,0
9044,129,129,128,123,127,127,128,123,0
9047,128,129,127,128,127,125,128,121,0
9053,127,128,129,125,128,128,126,123,0
9057,124,125,129,136,126,127,127,131,0
9060,129,128,126,124,128,130,128,134,0
9063,129,128,128,124,128,124,127,132,0
9073,128,129,129,139,126,128,129,121,0
9076,124,126,129,125,128,131,128,130,0
9080,129,129,128,123,129,126,127,130,0
9084,129,128,126,121,128,127,126,126,0
9087,127,129,129,137,129,126,126,121,0
9090,126,127,129,137,126,130,131,122,0
9094,128,126,126,125,128,127,128,128,0
9097,129,129,128,123,128,127,128,126,0
9109,128,126,128,129,128,126,126,124,0
9113,127,126,126,125,127,128,128,124,0
9116,128,128,127,124,128,128,127,133,0
9119,129,128,128,127,128,128,125,127,0
9124,128,128,128,136,126,127,130,125,0
9127,126,123,129,134,125,126,130,122,0
9130,128,129,125,124,129,130,129,132,0
9134,129,127,125,123,128,127,127,132,0
9146,128,127,128,126,130,128,128,126,0
9150,126,126,128,126,130,127,127,129,0
9153,128,128,127,124,128,129,129,131,0
9159,129,129,128,129,127,126,126,128,0
9163,127,128,128,123,127,128,127,123,0
9166,126,127,126,124,128,128,127,128,0
9171,128,127,127,125,128,128,128,131,0
9175,129,129,128,123,129,127,126,126,0
9178,127,127,129,134,127,126,125,127,0
9181,126,126,129,138,124,127,130,124,0
9184,126,125,129,135,128,128,127,126,0
9187,130,127,126,127,127,132,127,130,0
9192,128,127,126,126,128,130,127,127,0
9196,127,127,128,125,127,130,128,127,0
9205,127,127,128,123,128,128,129,132,0
9209,129,128,127,128,128,128,127,130,0
9212,129,128,128,129,127,128,125,124,0
9216,125,128,128,125,127,125,126,119,0
9219,126,129,128,128,127,129,129,128,0
9222,129,129,128,128,127,128,128,131,0
9226,128,128,128,135,127,125,127,128,0
9229,126,126,128,135,127,125,127,127,0
9232,127,129,130,139,125,128,128,125,0
9235,128,126,128,123,128,129,127,128,0
9239,129,128,127,126,128,125,127,131,0
9242,126,128,129,136,126,125,129,122,0
9245,127,125,129,135,128,129,127,131,0
9254,128,128,128,127,128,128,127,131,0
9258,128,127,128,126,128,128,127,125,0
9261,127,127,128,127,128,130,126,126,0
9264,126,126,129,139,125,126,129,130,0
9268,130,129,126,126,128,127,126,130,0
9274,126,127,128,125,127,129,128,129,0
9271,129,127,128,127,128,128,128,123,0
9278,127,127,126,126,128,127,128,126,0
9281,128,127,126,128,127,128,129,129,0
9284,129,127,126,130,128,125,128,123,0
9298,126,124,129,141,126,126,131,125,0
9303,126,125,129,137,125,125,127,132,0
9307,129,129,125,119,129,129,127,133,0
9311,129,129,126,121,129,128,127,130,0
9314,128,129,128,126,128,128,127,127,0
9317,125,127,129,122,128,126,126,128,0
9321,127,127,128,125,128,127,126,130,0
9326,127,129,125,121,127,128,127,131,0
9330,127,128,128,131,128,125,127,124,0
9336,124,125,129,133,128,126,127,126,0
9339,129,127,129,127,127,128,129,128,0
9343,128,128,128,124,128,131,128,123,0
9346,125,127,128,127,127,127,128,126,0
9349,127,127,129,134,129,126,127,131,0
9352,129,127,127,123,127,129,127,130,0
9356,128,127,126,129,129,128,129,125,0
9359,127,126,129,132,126,126,129,125,0
9362,127,125,128,131,126,127,127,131,0
9365,129,128,127,119,128,132,127,135,0
9369,129,129,125,124,128,129,128,130,0
9373,128,127,126,123,128,130,129,131,0
9376,125,128,128,121,128,129,128,130,0
9380,129,128,127,122,128,128,128,130,0
9383,129,128,127,131,127,129,128,132,0
9386,128,129,129,133,128,126,128,127,0
9389,124,128,129,129,128,128,128,120,0
9392,128,128,126,124,127,129,128,129,0
9395,129,128,128,129,127,126,127,131,0
9398,128,128,128,130,128,128,128,120,0
9401,127,127,127,137,128,125,127,123,0
9412,126,127,127,125,127,130,129,128,0
9417,129,129,128,127,127,128,127,130,0
9420,128,128,129,127,128,126,126,122,0
9423,127,123,129,136,124,128,130,122,0
9428,127,126,126,120,129,131,128,133,0
9431,129,130,126,120,129,129,127,132,0
9434,129,129,126,123,129,127,125,127,0
9437,126,126,128,123,128,131,127,125,0
9448,127,128,128,129,128,124,127,128,0
9453,129,130,127,127,128,128,126,128,0
9458,129,128,128,125,128,126,126,123,0
9462,125,128,126,130,128,128,125,120,0
9465,126,128,128,125,128,125,128,129,0
9468,129,129,128,129,127,128,129,131,0
9471,128,127,128,125,127,127,129,123,0
9475,126,126,129,136,126,125,129,122,0
9484,126,125,129,125,128,128,129,132,0
9489,127,131,126,125,128,127,128,133,0
9492,127,127,126,125,128,126,127,131,0
9496,125,129,129,126,127,126,127,127,0
9499,126,127,126,122,128,128,129,130,0
9508,129,130,128,124,128,127,127,129,0
9511,128,128,128,125,128,128,126,124,0
9516,126,129,129,131,127,126,127,128,0
9519,127,126,129,127,127,126,127,127,0
9523,129,128,127,128,128,128,129,133,0
9527,129,129,128,125,127,126,127,130,0
9530,127,128,129,133,127,128,131,124,0
9534,126,124,130,135,125,125,130,122,0
9537,128,130,128,123,128,132,127,128,0
9540,129,128,128,124,129,130,127,131,0
9543,127,127,126,122,128,125,128,128,0
9547,126,127,126,126,128,128,128,131,0
9550,129,130,129,130,127,129,128,130,0
9553,129,128,127,134,128,128,128,131,0
9560,128,129,129,138,129,126,127,122,0
9563,127,128,128,129,127,127,127,127,0
9566,128,128,128,128,128,128,129,129,0
9569,129,129,128,128,128,126,126,123,0
9574,127,128,128,132,128,128,125,127,0
9578,127,127,128,131,128,125,128,121,0
9583,128,129,128,127,127,126,127,134,0
9588,129,129,127,129,128,132,127,123,0
9593,127,125,129,137,126,127,129,123,0
9597,126,124,129,135,125,126,130,122,0
9600,129,128,128,121,128,129,128,134,0
9604,129,128,127,121,128,128,127,131,0
9607,128,127,128,130,128,130,125,128,0
9611,125,128,127,122,128,130,127,128,0
9614,128,127,128,126,128,129,127,129,0
9618,129,127,126,123,127,128,128,131,0
9622,128,129,129,122,128,125,127,127,0
9626,126,127,129,131,128,126,126,123,0
9630,127,128,128,127,127,129,129,130,0
9633,129,128,128,128,127,125,126,129,0
9636,127,128,129,136,127,125,127,121,0
9641,126,126,129,137,126,128,129,122,0
9646,127,127,125,124,128,130,129,132,0
9649,129,129,127,126,128,127,127,128,0
9652,128,127,128,138,127,130,128,126,0
9655,127,128,127,131,127,130,128,123,0
9658,127,127,125,126,127,129,127,129,0
9661,129,128,128,124,128,126,127,131,0
9665,129,128,126,130,128,130,127,125,0
9671,127,127,128,141,126,128,130,121,0
9674,126,125,129,140,126,125,127,126,0
9678,129,127,127,131,128,126,127,129,0
9681,129,128,127,127,128,125,128,128,0
9684,128,127,126,126,128,125,126,127,0
9687,127,127,127,127,128,124,128,131,0
9691,129,127,128,127,128,127,126,128,0
9694,128,129,126,130,127,127,129,124,0
9698,126,126,128,135,126,126,128,122,0
9702,126,126,128,127,128,129,127,133,0
9707,129,129,128,121,129,128,127,130,0
9766,128,128,128,124,129,130,127,131,0
9778,125,129,129,125,128,127,126,126,0
9786,126,128,127,129,128,128,128,129,0
9791,128,129,128,126,128,125,127,130,0
9796,128,127,127,126,127,126,126,124,0
9833,126,125,129,136,126,124,130,122,0
9842,125,126,126,123,128,128,128,132,0
9849,129,130,127,121,128,128,127,129,0
9901,128,128,126,122,128,129,128,125,0
9912,127,127,128,124,127,130,127,126,0
9922,126,127,128,124,128,127,127,129,0
9931,129,128,128,125,128,129,128,131,0
9937,129,128,126,129,127,127,127,130,0
9968,127,128,127,126,128,129,128,124,0
9976,127,126,129,138,126,129,130,122,0
9985,129,129,127,127,128,127,128,130,0
10038,129,130,128,130,127,129,127,128,0
10048,127,128,125,129,126,126,130,124,0
10059,126,123,129,136,125,126,129,122,0
10066,127,128,128,124,128,129,128,130,0
10073,129,127,128,124,128,131,128,132,0
10078,128,128,126,121,128,128,126,120,0
10083,126,127,127,124,127,131,129,131,0
10094,129,130,127,126,127,124,126,131,0
10089,128,127,127,131,127,129,129,131,0
10100,128,129,129,125,128,126,125,125,0
10105,127,126,128,128,128,125,125,128,0
10113,128,128,126,124,128,130,128,126,0
10118,128,128,126,126,128,128,127,121,0
10122,127,127,128,120,128,126,129,121,0
10126,126,123,129,136,125,126,129,123,0
10129,128,128,128,122,128,130,128,129,0
10133,129,128,128,123,129,130,127,132,0
10136,127,127,129,126,128,131,126,128,0
10139,127,128,127,123,128,128,126,128,0
10142,127,127,128,126,128,128,128,130,0
10146,129,128,126,126,128,130,129,130,0
10149,128,129,128,127,128,126,127,128,0
10152,127,128,129,133,129,129,128,121,0
10155,128,128,128,124,128,129,128,127,0
10159,128,128,128,127,128,128,129,125,0
10162,127,128,128,134,126,126,128,123,0
10165,126,124,129,137,125,126,129,121,0
10169,128,127,126,122,128,129,128,133,0
10172,129,129,126,122,128,128,127,129,0
10176,128,127,126,123,128,129,127,131,0
10179,127,128,127,124,128,126,126,127,0
10181,127,127,128,127,127,129,128,130,0
10185,129,128,128,125,127,126,127,130,0
10188,128,129,128,128,127,124,127,126,0
10190,127,128,129,127,127,127,128,123,0
10193,126,125,129,128,128,126,128,133,0
10196,130,128,128,124,129,129,128,131,0
10198,128,128,128,132,128,130,127,125,0
10202,125,128,127,123,128,124,126,126,0
10207,126,127,128,135,128,127,127,128,0
10212,129,128,127,127,127,124,128,132,0
10216,128,129,127,130,127,125,126,130,0
10219,126,125,128,137,125,127,131,125,0
10222,125,124,128,134,126,130,129,132,0
10226,129,128,126,122,128,131,128,132,0
10229,129,128,125,123,129,128,126,129,0
10234,125,127,128,139,128,126,127,129,0
10237,127,128,127,123,127,128,127,124,0
10239,128,127,126,124,127,126,126,129,0
10243,128,127,126,128,128,124,126,125,0
10246,127,128,128,128,128,125,127,127,0
10249,127,127,127,132,128,123,128,130,0
10252,129,128,127,130,128,125,126,127,0
10256,128,128,128,131,127,124,127,122,0
10259,127,128,127,128,125,125,130,125,0
10262,126,123,128,138,126,125,128,129,0
10307,129,130,128,126,128,129,126,131,0
10318,129,128,129,122,128,129,125,126,0
10326,128,126,128,126,129,126,126,126,0
10331,125,126,129,129,127,127,126,128,0
10334,128,127,129,128,127,129,127,129,0
10338,125,128,126,125,128,126,126,127,0
10342,127,127,126,128,127,126,126,122,0
10345,126,126,126,129,129,124,128,121,0
10375,128,129,128,127,128,128,127,126,0
10386,128,128,126,127,128,128,129,127,0
10392,126,128,128,133,128,128,128,119,0
10397,124,125,129,138,125,126,129,124,0
10403,127,125,126,124,127,131,128,131,0
10420,129,129,127,124,128,127,127,130,0
10424,127,127,128,125,128,127,126,126,0
10428,124,127,126,123,128,127,127,127,0
10432,129,128,128,123,128,128,128,132,0
10435,129,130,128,126,128,125,127,130,0
10438,127,126,129,135,126,125,131,125,0
10442,125,124,128,135,126,126,128,128,0
10445,129,128,127,122,128,130,128,133,0
10448,129,130,127,125,129,127,126,128,0
10451,128,129,127,123,127,130,127,129,0
10455,125,130,126,134,127,129,129,125,0
10458,128,128,128,130,127,129,130,123,0
10461,130,130,129,127,128,131,126,127,0
10465,128,128,127,127,127,127,127,126,0
10468,126,127,128,129,128,127,128,127,0
10471,127,128,128,127,128,126,129,129,0
10474,129,128,128,126,127,126,126,125,0
10478,128,129,129,136,129,126,129,122,0
10481,126,126,129,138,127,124,129,122,0
10484,127,127,127,125,128,129,129,133,0
10487,130,129,127,125,127,126,127,133,0
10490,127,129,128,125,128,127,127,132,0
10494,125,126,126,123,128,130,128,127,0
10497,128,128,126,122,128,127,127,129,0
10499,129,127,128,126,128,128,127,125,0
10502,129,127,126,127,128,131,128,124,0
10508,126,125,129,136,127,125,129,122,0
10513,126,129,125,120,128,129,129,132,0
10515,129,129,128,124,128,128,126,129,0
10520,128,129,127,123,128,131,127,128,0
10523,127,127,128,125,128,125,125,126,0
10528,127,127,127,132,128,129,128,129,0
10533,129,128,128,122,128,126,127,128,0
10539,128,128,128,129,127,128,128,128,0
10543,127,125,129,134,126,125,128,121,0
10579,127,125,129,134,128,129,128,131,0
10589,129,130,128,125,129,131,129,130,0
10593,129,128,127,127,128,130,127,126,0
10597,127,128,129,122,128,129,127,125,0
10601,127,127,128,127,128,125,127,127,0
10645,130,130,128,124,128,126,128,130,0
10653,129,128,126,129,127,130,126,124,0
10659,125,127,126,127,127,125,129,121,0
10665,126,127,129,136,126,129,130,125,0
10670,129,129,126,121,129,131,128,133,0
10674,129,128,127,122,128,127,127,131,0
10678,128,129,126,126,128,125,127,127,0
10682,127,128,128,126,127,128,127,129,0
10686,128,128,128,125,127,126,127,131,0
10690,129,129,128,124,127,127,127,129,0
10694,127,128,129,134,126,127,128,121,0
10697,126,127,129,137,125,126,128,133,0
10700,129,129,128,122,128,127,126,130,0
10703,129,127,128,122,128,126,128,132,0
10711,126,128,127,124,127,126,125,121,0
10715,126,126,126,124,128,127,129,131,0
10719,129,128,128,129,128,128,129,132,0
10723,129,128,126,128,128,129,127,131,0
10726,128,128,128,130,128,130,125,122,0
10729,126,125,130,137,126,126,128,129,0
10735,128,128,125,126,128,130,129,130,0
10740,129,127,126,126,128,128,128,129,0
10743,127,127,126,123,127,128,128,127,0
10746,126,125,128,138,126,126,128,122,0
10750,127,128,127,122,128,128,127,133,0
10753,130,130,126,124,128,129,128,123,0
10756,128,127,128,129,128,125,129,122,0
10759,125,125,129,136,126,125,129,123,0
10763,128,128,125,122,128,129,128,132,0
10766,129,130,128,123,128,127,126,129,0
10770,128,127,129,137,126,127,128,123,0
10775,126,125,128,136,126,126,126,131,0
10778,126,130,126,122,128,128,127,132,0
10781,129,129,128,125,128,129,128,130,0
10787,126,129,128,129,129,127,126,131,0
10790,126,128,128,125,128,126,125,128,0
10793,127,127,128,128,127,123,127,131,0
10797,129,130,126,126,128,128,128,130,0
10800,128,129,128,136,127,127,126,129,0
10803,125,126,129,135,127,127,126,126,0
10806,125,129,128,128,127,128,128,126,0
10810,129,127,126,126,128,128,127,129,0
10813,128,128,128,131,127,128,126,122,0
10816,126,126,129,137,125,126,131,123,0
10820,126,126,128,127,128,127,128,132,0
10824,127,128,128,126,129,128,127,133,0
10827,129,130,126,124,128,128,126,127,0
10830,127,126,126,123,127,128,129,126,0
10833,126,126,129,127,128,130,128,128,0
10836,129,129,128,125,128,126,127,131,0
10839,128,127,128,127,127,128,127,120,0
10842,126,125,130,138,125,125,127,122,0
10847,125,129,129,125,128,127,127,125,0
10852,128,130,128,127,128,126,127,128,0
10857,129,128,126,125,128,127,128,123,0
10860,127,125,129,136,126,125,130,122,0
10862,125,127,125,119,128,129,128,133,0
10865,130,130,127,123,128,130,128,131,0
10868,129,128,128,124,128,129,125,128,0
10871,125,127,128,126,128,126,127,125,0
10875,127,128,126,129,127,127,127,132,0
10878,129,128,129,126,127,129,128,131,0
10881,129,128,126,121,128,128,127,131,0
10884,127,127,128,135,128,129,126,125,0
10887,127,126,128,125,128,129,126,129,0
10890,129,129,126,127,128,127,127,129,0
10893,129,128,126,128,127,126,127,128,0
10896,127,128,128,132,126,126,131,125,0
10899,126,123,129,137,126,125,126,130,0
10903,130,129,126,121,128,129,128,133,0
10906,129,129,128,125,128,128,126,130,0
10909,127,127,126,123,128,131,126,121,0
10912,124,128,128,124,128,129,127,122,0
10915,128,129,126,124,128,131,126,130,0
10918,129,127,128,123,128,128,128,126,0
10924,128,128,126,128,128,127,127,128,0
10927,124,125,129,136,127,128,129,122,0
10929,129,129,127,123,128,126,127,130,0
10933,127,131,127,125,128,126,128,131,0
10936,127,127,128,129,128,127,126,125,0
10939,127,126,126,124,128,127,126,126,0
10943,128,127,127,131,127,129,127,128,0
10947,127,128,126,123,127,128,128,129,0
10952,128,126,130,137,125,128,130,125,0
10957,126,123,129,134,128,131,128,129,0
10961,128,127,125,124,129,127,127,131,0
10964,127,128,126,124,129,127,126,128,0
10968,128,129,128,123,128,127,126,129,0
10972,127,129,126,126,128,126,126,129,0
10975,127,128,128,126,127,127,127,130,0
10979,129,130,126,129,128,127,126,128,0
10984,127,129,128,131,128,126,125,127,0
10987,124,128,128,126,128,129,127,123,0
10990,127,126,129,130,128,128,127,126,0
10994,129,128,126,124,127,124,125,128,0
10997,128,128,128,137,126,127,131,125,0
11000,126,123,130,137,126,126,130,123,0
11005,126,125,129,129,128,129,127,128,0
11008,129,130,128,126,129,128,127,133,0
11019,128,127,128,122,128,129,127,129,0
11023,127,127,128,125,129,129,128,127,0
11028,127,128,126,126,127,128,127,129,0
11031,129,130,128,128,127,127,126,127,0
11035,128,127,126,124,127,127,128,127,0
11038,128,130,126,125,127,126,126,126,0
11041,127,127,128,129,128,126,127,128,0
11045,129,127,129,125,128,126,127,129,0
11048,128,128,127,128,127,125,126,128,0
11051,124,129,127,122,127,127,128,126,0
11055,127,127,129,132,129,129,129,128,0
11058,129,129,127,122,127,129,127,124,0
11061,128,128,128,126,128,128,126,130,0
11064,127,127,129,136,125,129,130,124,0
11068,126,124,129,136,125,125,130,129,0
11073,129,128,127,124,127,128,130,133,0
11079,128,128,127,123,127,130,129,129,0
11084,127,127,126,122,128,131,128,130,0
11087,127,127,126,127,128,127,127,130,0
11090,129,128,127,129,127,132,129,131,0
11093,128,128,127,125,129,125,128,132,0
11096,126,126,129,137,127,125,128,122,0
11099,126,124,128,123,129,128,127,130,0
11103,129,129,126,125,128,127,127,132,0
11106,129,130,126,125,128,127,127,131,0
11110,128,128,126,124,128,127,126,128,0
11113,126,126,128,128,128,126,127,124,0
11116,129,127,127,121,127,129,126,125,0
11120,129,129,128,128,128,130,124,123,0
11123,128,128,126,123,128,127,126,128,0
11126,126,127,129,138,127,127,129,123,0
11129,127,127,128,123,128,132,128,131,0
11133,129,128,128,123,128,126,127,131,0
11136,127,128,128,129,128,127,129,124,0
11139,125,125,128,137,126,125,129,128,0
11143,129,127,128,129,130,130,128,129,0
11146,129,127,126,129,130,127,127,125,0
11150,128,127,128,124,128,131,126,127,0
11154,127,128,126,122,128,128,127,129,0
11157,129,127,126,124,129,128,127,130,0
11160,129,128,126,123,127,128,127,128,0
11164,127,128,128,130,127,130,126,121,0
11167,126,127,129,128,127,124,126,121,0
11170,128,128,128,128,127,130,127,130,0
11174,129,128,128,130,127,129,128,129,0
11177,128,128,128,133,127,125,126,123,0
11180,126,125,129,138,126,125,130,122,0
11186,127,126,126,124,128,128,128,134,0
11189,129,128,126,123,128,128,127,132,0
11191,129,127,126,124,129,126,128,132,0
11195,127,126,127,124,128,124,126,126,0
11197,127,127,127,126,128,127,129,128,0
11201,129,128,128,127,127,128,129,128,0
11204,128,128,128,126,127,131,126,127,0
11207,126,128,128,128,128,128,127,123,0
11210,127,127,128,130,127,129,127,126,0
11212,129,128,127,128,127,127,127,130,0
11216,129,128,128,126,127,128,127,120,0
11219,126,123,129,136,124,127,130,122,0
11222,126,125,129,136,125,126,127,128,0
11226,128,130,128,123,128,128,127,130,0
11229,128,127,128,124,128,127,126,127,0
11231,126,127,128,126,129,130,128,126,0
11234,127,127,126,125,129,132,130,130,0
11237,129,128,128,125,128,128,128,131,0
11240,129,130,126,128,127,126,127,126,0
11243,126,127,128,125,127,130,127,126,0
11246,126,128,127,122,127,126,127,128,0
11249,127,128,128,128,127,128,127,130,0
11253,129,127,126,132,128,128,127,128,0
11259,127,126,129,140,126,124,129,121,0
11261,125,124,129,128,128,127,128,129,0
11265,129,129,128,128,128,125,129,131,0
11268,129,128,126,129,128,129,126,131,0
11271,125,128,128,124,127,126,128,121,0
11275,126,124,128,137,125,126,128,124,0
11278,129,128,125,123,128,132,128,131,0
11282,129,130,126,123,128,128,126,129,0
11288,127,127,129,123,128,130,128,120,0
11291,127,127,129,128,128,128,127,126,0
11295,128,127,128,124,128,128,128,129,0
11298,129,128,126,127,128,126,126,127,0
11301,125,127,129,139,125,126,129,121,0
11305,126,127,128,124,128,129,127,127,0
11307,129,128,127,126,128,126,129,132,0
11310,129,128,128,126,127,127,127,128,0
11321,128,130,126,125,126,126,126,127,0
11326,125,126,127,123,127,126,127,128,0
11329,128,127,128,125,127,127,129,129,0
11333,129,129,128,127,128,124,126,130,0
11336,127,128,129,136,125,127,131,125,0
11340,125,125,129,136,126,125,129,127,0
11343,129,127,127,123,128,128,125,127,0
11348,127,130,128,120,128,128,125,131,0
11351,128,129,127,123,128,128,125,127,0
11355,126,127,128,121,128,130,126,127,0
11360,128,128,127,126,128,130,129,128,0
11363,129,128,127,126,128,127,126,127,0
11366,128,127,129,132,126,124,126,125,0
11369,126,126,128,129,128,128,126,124,0
11372,128,127,128,128,128,128,129,129,0
11374,129,128,128,123,128,127,127,123,0
11378,127,128,126,127,127,125,126,129,0
11382,127,126,129,137,125,128,130,126,0
11385,126,127,126,125,128,131,129,131,0
11387,129,128,126,123,129,129,128,128,0
11390,128,126,128,127,128,127,127,124,0
11393,127,128,128,127,128,128,128,123,0
11398,128,127,127,131,128,129,128,128,0
11403,129,128,127,130,128,125,127,129,0
11406,127,126,127,128,128,127,126,122,0
11410,124,127,128,128,128,125,127,128,0
11413,126,127,127,130,128,127,128,122,0
11417,129,127,126,123,128,129,128,127,0
11420,128,128,126,126,128,130,129,124,0
11423,126,123,129,137,125,125,130,123,0
11426,126,126,128,122,128,130,128,130,0
11429,128,128,128,123,127,130,127,130,0
11433,129,128,126,125,128,131,127,131,0
11436,128,128,126,121,128,128,126,121,0
11439,125,129,128,128,128,128,127,127,0
11441,129,128,127,128,128,128,127,129,0
11444,129,128,128,127,127,130,127,130,0
11447,127,127,126,124,128,126,126,126,0
11449,127,126,126,120,128,124,127,129,0
11452,129,129,127,130,128,129,129,131,0
11455,129,128,127,131,128,126,126,122,0
11460,126,125,129,136,127,126,129,121,0
11463,126,125,128,122,128,128,126,126,0
11466,129,128,128,124,128,130,128,130,0
11470,128,127,127,127,127,128,127,130,0
11473,127,127,128,127,128,126,126,123,0
11476,126,127,128,124,128,128,128,130,0
11479,129,130,127,127,127,128,128,128,0
11483,128,127,128,131,126,129,129,124,0
11486,126,126,129,136,126,125,129,123,0
11489,125,127,128,135,128,128,128,130,0
11493,129,127,128,126,128,132,128,131,0
11498,129,128,126,123,128,131,128,131,0
11505,127,129,127,133,128,127,127,125,0
11508,127,127,128,126,127,128,129,131,0
11512,128,129,127,124,128,126,128,130,0
11516,128,127,126,127,128,124,127,124,0
11519,127,127,128,128,129,129,127,124,0
11522,126,126,126,124,127,125,126,129,0
11525,128,127,127,125,127,130,128,130,0
11528,128,129,128,127,128,125,125,124,0
11532,127,128,128,128,128,129,127,127,0
11536,126,126,129,138,125,127,130,125,0
11539,128,126,129,129,128,128,128,133,0
11541,129,128,128,124,128,130,128,131,0
11544,126,128,127,121,127,131,127,127,0
11547,126,128,126,125,128,127,126,126,0
11550,128,130,127,125,128,129,127,130,0
11553,129,127,126,130,127,130,128,126,0
11557,127,126,129,133,129,126,126,126,0
11562,125,125,129,139,125,127,129,127,0
11565,128,129,127,131,128,127,127,131,0
11569,128,129,127,127,128,125,127,131,0
11573,126,128,128,128,128,130,129,121,0
11575,126,126,129,136,126,126,129,125,0
11579,127,130,126,122,127,129,129,133,0
11581,130,130,126,122,128,127,128,130,0
11584,128,128,126,123,129,129,128,128,0
11587,124,129,127,128,127,130,128,128,0
11590,127,128,128,126,128,126,128,132,0
11595,130,129,128,130,128,128,126,128,0
11599,126,129,129,133,127,128,126,124,0
11605,125,127,126,123,128,126,126,121,0
11608,127,126,129,128,128,127,127,130,0
11613,129,129,126,126,128,124,128,130,0
11623,128,127,126,123,128,125,125,128,0
11627,126,127,129,127,127,126,127,126,0
11631,126,129,129,132,127,128,129,132,0
11634,128,128,126,125,128,129,128,125,0
11637,128,128,128,124,128,127,125,121,0
11640,126,123,128,136,124,128,130,125,0
11643,126,126,129,133,128,129,126,130,0
11650,129,130,127,122,130,131,127,133,0
11652,128,127,125,119,128,131,128,131,0
11656,127,127,126,121,128,130,127,127,0
11659,127,127,126,128,127,128,130,130,0
11663,130,128,127,131,127,130,129,131,0
11666,129,128,127,129,128,124,128,131,0
11669,127,130,126,127,129,125,127,126,0
11673,125,126,128,128,127,128,127,132,0
11676,129,130,128,121,128,129,127,129,0
11679,129,129,128,123,128,125,126,122,0
11681,126,123,129,137,125,126,129,123,0
11688,126,125,128,132,128,128,126,128,0
11691,127,130,128,122,128,129,127,131,0
11694,129,128,126,125,128,131,127,131,0
11698,127,128,128,123,128,125,128,127,0
11700,125,129,128,132,127,128,129,127,0
11703,128,130,128,128,128,126,128,131,0
11706,129,129,128,125,127,127,128,125,0
11709,127,128,128,132,128,130,128,125,0
11712,126,127,127,128,128,128,129,126,0
11716,129,127,128,126,128,128,128,132,0
11719,129,128,126,128,128,127,128,127,0
11723,126,128,126,126,128,126,126,124,0
11729,126,127,128,131,127,126,129,128,0
11734,128,129,128,125,128,129,129,129,0
11737,128,127,129,128,128,124,128,124,0
11740,127,127,128,137,126,128,130,126,0
11743,125,124,129,137,125,125,128,127,0
11746,129,129,125,122,128,128,129,132,0
11749,129,127,125,124,128,128,126,132,0
11753,127,127,125,121,127,127,128,124,0
11757,127,127,126,123,128,127,127,130,0
11760,129,131,128,126,127,127,127,132,0
11763,129,128,126,127,128,127,126,124,0
11766,126,127,128,129,128,126,127,125,0
11770,125,126,126,130,128,126,128,131,0
11773,128,126,126,127,127,128,130,130,0
11776,129,129,128,128,127,127,129,131,0
11780,128,127,128,129,127,125,126,128,0
11782,127,126,126,125,127,124,126,127,0
11786,128,128,128,124,128,129,127,132,0
11790,130,130,128,125,127,129,128,124,0
11793,128,129,129,136,125,128,131,126,0
11797,126,124,128,137,126,125,128,128,0
11800,128,127,125,123,129,127,128,132,0
11803,129,129,127,127,128,131,128,132,0
11808,129,129,128,124,128,127,125,124,0
11811,127,127,128,125,128,128,128,129,0
11813,128,128,126,131,127,128,129,131,0
11816,130,127,126,126,128,128,129,128,0
11819,126,128,128,130,127,127,127,128,0
11823,127,127,128,129,128,126,127,128,0
11826,127,130,126,126,127,125,127,125,0
11831,129,129,127,127,128,128,126,128,0
11837,129,127,129,127,128,125,126,127,0
11840,127,126,129,137,125,127,129,124,0
11843,127,126,125,122,129,129,128,128,0
11849,129,128,125,123,128,129,127,132,0
11852,128,128,126,123,127,127,126,129,0
11855,127,129,128,126,128,127,125,126,0
11858,126,127,128,125,128,129,128,127,0
11861,129,128,128,123,128,126,128,133,0
11864,129,127,129,129,128,124,126,128,0
11867,127,127,129,129,128,126,125,123,0
11870,127,127,126,125,127,128,128,123,0
11873,129,129,126,124,128,127,126,123,0
11876,129,128,128,134,128,131,127,122,0
11879,127,123,129,136,125,128,130,124,0
11882,126,125,129,133,128,128,127,132,0
11886,129,128,125,124,128,128,128,133,0
11889,129,128,126,123,128,127,126,127,0
11892,127,126,128,121,127,129,128,127,0
11896,127,128,126,122,128,128,127,128,0
11903,128,127,128,130,127,128,127,132,0
11906,129,129,128,123,127,126,126,122,0
11909,128,128,126,122,128,125,128,127,0
11913,124,128,127,130,127,126,127,131,0
11923,129,128,127,133,128,127,128,131,0
11928,129,129,128,126,127,124,127,124,0
11932,127,128,128,128,128,126,125,123,0
11935,125,125,130,136,126,127,129,124,0
11939,128,125,126,121,128,128,128,132,0
11943,129,130,128,123,129,127,126,129,0
11948,127,126,129,134,129,127,127,127,0
11954,127,127,126,127,128,126,128,132,0
11959,130,128,128,130,127,126,127,128,0
11961,129,130,126,125,129,129,127,130,0
11964,127,127,129,139,125,127,131,125,0
11967,126,124,129,135,126,129,129,131,0
11970,129,128,125,123,128,128,127,130,0
11974,128,129,128,126,127,130,129,131,0
11977,128,127,128,126,128,124,127,129,0
11981,125,128,128,126,128,130,128,126,0
11986,128,128,128,125,128,126,127,129,0
11989,128,128,129,129,127,130,127,124,0
11992,127,127,129,128,128,125,128,122,0
11995,126,127,126,124,128,126,127,127,0
11998,128,127,129,128,128,129,129,128,0
12001,128,128,126,126,127,129,129,126,0
12004,127,125,129,136,126,124,128,122,0
12007,127,126,128,134,126,127,128,125,0
12011,127,130,127,123,128,129,127,133,0
12014,129,130,128,123,129,126,127,133,0
12017,128,127,127,120,128,130,128,130,0
12020,127,128,128,137,127,126,129,128,0
12023,127,128,127,124,127,128,129,132,0
12027,129,129,126,128,127,128,128,131,0
12030,128,129,128,128,128,128,127,128,0
12034,126,126,129,135,128,125,127,128,0
12038,127,127,128,124,129,129,128,130,0
12041,129,128,128,124,128,126,128,132,0
12045,128,129,128,126,127,129,126,129,0
12049,127,127,129,127,127,128,128,125,0
12053,127,128,126,128,128,127,128,129,0
12058,129,129,128,128,127,126,127,127,0
12065,127,126,130,137,126,125,129,125,0
12068,126,125,129,134,125,128,130,121,0
12071,128,125,126,121,128,132,128,133,0
12075,129,128,125,122,128,126,128,129,0
12078,129,127,128,123,128,131,127,132,0
12081,127,126,127,123,128,130,127,126,0
12084,127,128,128,124,128,126,126,122,0
12087,129,128,125,126,128,127,127,132,0
12090,129,129,126,126,128,127,125,131,0
12093,126,130,128,124,126,127,126,127,0
12096,127,127,128,128,127,127,127,129,0
12102,129,128,128,124,128,125,127,129,0
12106,128,129,129,129,127,127,127,124,0
12110,126,123,128,140,125,126,130,121,0
12114,126,126,128,127,129,127,127,127,0
12116,129,130,128,123,128,129,127,129,0
12119,127,127,126,124,129,125,125,128,0
12122,127,128,128,124,128,130,125,124,0
12125,127,127,127,132,129,129,129,122,0
12128,127,127,128,128,127,128,128,130,0
12131,129,127,128,125,127,128,129,129,0
12136,127,128,126,134,127,124,125,120,0
12139,125,128,127,133,128,131,128,128,0
12143,129,127,126,127,127,129,129,133,0
12145,128,128,127,134,127,127,128,129,0
12148,127,126,128,125,127,125,127,126,0
12151,125,129,129,132,128,128,127,127,0
12155,128,127,127,126,128,129,129,132,0
12160,129,127,128,131,128,128,127,125,0
12166,128,128,129,133,126,125,128,123,0
12171,127,126,128,135,126,126,130,123,0
12174,127,130,127,122,128,132,127,130,0
12177,129,128,125,123,128,128,128,132,0
12180,127,127,126,125,128,125,125,129,0
12183,127,129,128,120,128,129,126,127,0
12186,128,128,126,127,127,130,126,129,0
12189,129,127,128,126,128,128,126,131,0
12192,127,128,128,126,128,130,128,126,0
12195,125,128,128,133,128,129,127,123,0
12198,128,129,128,128,128,127,128,129,0
12201,129,128,128,132,128,130,128,128,0
12205,128,127,128,136,128,125,127,122,0
12208,127,123,129,137,125,127,131,123,0
12212,128,126,128,134,130,131,129,131,0
12217,129,129,126,122,128,127,126,130,0
12227,128,129,128,129,127,131,128,131,0
12232,127,126,128,124,129,128,128,126,0
12236,127,127,126,129,129,131,130,128,0
12240,129,128,126,127,128,124,128,128,0
12244,128,128,126,128,127,126,125,125,0
12249,127,127,128,124,128,127,125,122,0
12254,125,129,128,126,127,127,126,128,0
12257,130,129,128,125,127,129,126,128,0
12260,128,127,126,125,127,125,127,132,0
12264,126,125,129,134,125,127,131,124,0
12267,127,124,128,137,125,125,128,130,0
12270,128,130,128,122,128,128,128,133,0
12273,129,129,128,120,129,127,126,128,0
12278,127,127,128,131,127,127,127,127,0
12281,128,127,126,125,127,130,128,129,0
12286,129,129,127,124,128,129,128,120,0
12290,127,128,126,129,127,129,127,131,0
12294,127,127,128,126,128,127,127,126,0
12296,127,127,128,124,127,129,129,127,0
12299,130,129,128,129,128,125,126,129,0
12302,128,128,128,126,128,130,128,131,0
12305,126,127,129,127,128,128,126,124,0
12307,127,126,128,127,128,127,127,125,0
12310,129,129,128,127,128,127,127,130,0
12313,129,128,127,131,127,126,127,129,0
12315,127,128,126,127,127,126,131,124,0
12318,126,124,128,138,126,126,127,129,0
12321,129,129,128,125,129,129,127,132,0
12323,129,127,128,123,128,130,127,131,0
12326,127,128,126,133,128,128,126,126,0
12328,127,127,128,128,129,127,127,129,0
12331,128,128,126,124,127,131,129,133,0
12334,128,128,127,123,128,125,126,127,0
12336,127,128,128,127,128,128,130,122,0
12339,126,124,129,136,127,127,127,129,0
12342,129,128,126,123,128,126,127,132,0
12345,128,128,128,125,127,130,128,132,0
12348,126,127,126,121,128,126,126,125,0
12351,126,127,126,124,129,131,129,128,0
12354,129,128,127,124,128,127,127,130,0
12356,129,130,129,130,127,129,128,123,0
12359,127,128,128,136,128,127,126,124,0
12362,127,127,129,136,125,128,129,121,0
12365,128,127,129,125,128,127,127,127,0
12369,128,128,126,125,128,128,128,124,0
12374,128,126,128,127,128,124,127,124,0
12380,126,124,129,141,126,125,130,128,0
12383,129,127,128,124,128,127,129,130,0
12386,128,128,127,123,128,130,128,130,0
12389,128,128,128,130,127,130,128,129,0
12391,127,127,127,127,128,129,127,126,0
12396,128,127,126,126,127,128,128,125,0
12398,129,128,128,131,127,127,128,126,0
12401,128,127,127,128,126,126,130,125,0
12406,126,125,129,137,125,126,130,123,0
12409,127,129,127,121,129,129,127,132,0
12413,129,128,127,124,128,126,128,131,0
12415,128,128,126,122,128,128,125,125,0
12418,127,129,128,123,129,125,128,120,0
12421,127,128,125,123,128,128,128,132,0
12424,130,128,127,121,128,129,125,128,0
12426,128,129,128,123,130,126,127,128,0
12429,127,128,128,124,128,127,124,123,0
12434,127,127,126,123,128,130,127,130,0
12436,130,129,127,125,127,128,126,128,0
12439,128,128,128,129,128,125,126,129,0
12442,127,128,128,129,127,127,128,122,0
12445,126,128,127,124,127,128,129,129,0
12448,129,128,128,129,127,129,129,122,0
12451,128,128,128,124,128,128,128,129,0
12454,126,128,128,133,125,127,131,125,0
12457,126,124,128,139,126,125,129,123,0
12460,129,128,128,128,129,128,128,130,0
12462,128,126,128,127,128,128,128,128,0
12466,127,126,128,128,128,125,128,128,0
12471,127,127,126,127,128,128,129,129,0
12476,129,128,126,126,128,130,127,132,0
12481,129,130,129,124,128,124,125,130,0
12486,127,127,128,125,127,125,128,127,0
12489,127,126,128,124,128,128,128,130,0
12492,129,128,126,125,129,128,127,130,0
12495,129,127,127,129,127,126,126,125,0
12499,127,125,130,137,126,127,130,125,0
12502,126,124,128,135,125,128,127,129,0
12506,129,131,128,121,128,128,128,131,0
12509,128,127,127,128,128,126,128,131,0
12512,126,126,128,128,128,123,128,127,0
12516,125,127,129,129,128,126,127,129,0
12518,129,128,126,125,128,128,129,128,0
12524,129,128,128,124,126,129,128,128,0
12528,127,128,128,124,127,128,128,121,0
12532,126,127,128,127,127,124,127,129,0
12536,129,128,127,130,127,128,126,127,0
12541,128,128,126,127,128,128,126,127,0
12544,127,127,129,138,125,128,130,125,0
12548,125,124,129,134,127,128,127,130,0
12551,129,129,128,126,128,130,128,130,0
12554,129,128,128,122,129,126,127,131,0
12558,127,127,128,134,129,131,126,126,0
12560,126,128,126,123,128,131,128,130,0
12563,128,129,127,124,128,128,129,132,0
12566,128,130,127,122,128,125,127,131,0
12570,128,129,128,127,126,128,128,122,0
12573,126,126,129,133,125,128,128,123,0
12575,129,128,125,120,128,131,128,131,0
12578,128,129,127,126,128,131,127,133,0
12582,128,127,128,123,129,126,126,128,0
12588,126,128,128,125,128,127,129,124,0
12592,127,128,126,124,128,128,128,124,0
12595,128,128,126,124,128,128,128,129,0
12598,128,129,129,136,126,127,128,121,0
12601,126,124,129,138,126,124,130,122,0
12604,128,128,125,121,129,127,126,131,0
12606,129,128,128,124,128,128,127,130,0
12609,128,128,126,123,128,128,127,127,0
12612,126,127,128,122,127,130,129,122,0
12615,128,128,126,125,127,128,127,126,0
12618,128,127,126,132,128,127,129,129,0
12621,128,127,128,132,128,124,127,127,0
12623,126,127,129,129,128,128,129,127,0
12626,127,128,128,125,128,124,128,128,0
12629,129,127,126,128,127,129,129,126,0
12633,127,128,129,137,127,125,126,125,0
12636,127,127,128,129,128,130,126,122,0
12640,127,127,127,127,127,129,128,127,0
12643,129,127,128,128,128,129,128,130,0
12647,128,127,127,138,125,127,132,126,0
12650,126,125,128,135,125,126,130,122,0
12654,126,129,125,121,128,127,127,131,0
12659,129,130,125,119,128,129,127,132,0
12661,129,127,127,125,128,131,126,129,0
12665,126,128,126,121,128,130,126,127,0
12669,126,128,128,120,128,128,127,130,0
12674,129,130,127,129,128,128,126,127,0
