Start Recording
41,127,127,126,128,127,130,129,127,0
47,128,129,126,126,130,129,129,128,0
55,127,128,127,127,127,126,127,128,0
61,130,127,127,127,129,127,129,128,0
65,128,129,127,127,128,127,128,128,0
69,128,128,130,127,127,127,129,129,0
72,126,125,129,127,125,125,124,127,0
76,128,127,127,129,125,126,124,126,0
79,128,127,129,128,129,130,129,128,0
82,128,128,129,127,127,127,128,127,0
86,127,126,128,127,128,124,129,126,0
89,126,127,127,126,126,129,130,128,0
92,128,129,126,126,131,128,129,127,0
95,127,128,128,126,128,126,128,127,0
99,129,127,127,131,128,127,122,125,0
103,129,127,128,134,127,128,126,131,0
106,128,128,128,130,129,130,129,129,0
110,128,128,129,129,128,127,128,127,0
113,126,127,129,128,127,125,129,128,0
116,128,127,128,128,127,126,127,127,0
119,127,127,127,128,131,128,127,128,0
123,128,128,128,127,127,130,129,127,0
126,125,128,130,127,122,126,127,127,0
129,127,126,130,126,129,130,129,128,0
132,128,128,128,125,127,130,129,128,0
135,128,128,128,127,127,126,128,128,0
138,126,128,126,126,126,127,125,127,0
141,130,126,126,129,127,127,122,126,0
144,131,127,126,129,124,130,128,128,0
147,128,128,126,126,129,130,130,128,0
150,128,126,129,125,129,128,127,127,0
153,127,126,129,126,130,129,130,129,0
177,127,128,127,127,127,128,127,127,0
180,128,128,128,126,127,127,128,127,0
184,127,128,130,128,129,125,126,127,0
188,128,125,129,128,128,127,127,128,0
191,128,127,127,128,127,128,127,127,0
194,127,128,129,127,128,128,128,128,0
198,126,127,129,126,122,126,128,127,0
201,130,126,128,131,129,128,123,126,0
205,131,126,128,130,124,127,129,128,0
208,127,129,127,124,127,128,129,128,0
211,127,129,129,127,130,127,129,128,0
215,128,128,129,125,126,127,128,127,0
219,128,128,127,126,127,129,128,127,0
221,127,128,128,128,127,128,127,127,0
225,128,128,127,128,128,126,128,127,0
229,127,127,128,127,127,126,128,128,0
244,127,128,128,127,128,127,128,128,0
249,127,128,128,127,127,127,127,127,0
253,126,128,127,129,126,127,123,126,0
257,131,127,128,131,128,127,124,126,0
260,128,127,126,129,121,128,131,128,0
263,127,128,127,125,129,127,128,127,0
312,128,128,129,125,127,127,130,129,0
318,126,128,126,126,127,128,128,128,0
323,127,128,127,126,127,127,128,128,0
327,127,128,128,128,128,128,127,128,0
330,128,127,128,127,127,126,128,128,0
333,127,126,128,127,128,127,128,128,0
339,127,127,127,125,128,128,129,127,0
344,127,128,127,128,128,128,128,128,0
348,128,127,127,126,128,126,126,127,0
351,127,125,127,129,127,128,123,126,0
354,129,127,127,129,128,128,124,126,0
357,126,128,127,127,130,129,130,127,0
360,127,128,127,125,126,127,128,127,0
363,130,128,130,127,129,127,129,128,0
366,127,127,127,126,124,127,129,129,0
369,125,127,128,126,128,127,129,128,0
371,127,128,129,126,129,128,129,127,0
374,127,127,128,127,126,128,123,126,0
377,130,126,127,130,129,127,124,127,0
380,126,127,128,126,128,129,129,128,0
382,127,128,127,126,128,127,130,128,0
385,126,129,129,128,127,126,129,128,0
388,127,128,127,127,125,129,128,128,0
391,128,128,126,127,126,130,129,128,0
393,127,129,126,128,127,127,129,128,0
396,127,128,130,128,128,124,123,126,0
399,130,127,128,131,128,128,122,127,0
402,127,127,124,128,129,129,128,128,0
405,127,128,127,126,129,127,129,128,0
408,128,128,129,127,127,125,128,128,0
411,125,128,127,127,128,128,129,128,0
415,127,128,127,129,126,129,129,128,0
419,127,128,128,128,127,128,127,127,0
422,127,128,128,128,124,125,124,126,0
448,130,127,127,130,127,128,123,126,0
454,129,126,127,129,121,129,130,128,0
459,127,128,128,125,128,128,130,128,0
464,127,128,128,125,128,127,128,129,0
467,127,127,126,126,128,127,129,128,0
471,129,127,127,128,127,127,129,128,0
475,126,128,126,129,127,128,128,129,0
478,126,128,127,127,127,128,130,128,0
482,126,127,128,129,122,128,129,127,0
485,127,128,127,128,128,129,129,128,0
488,127,129,127,129,128,128,128,128,0
516,126,126,127,129,126,127,122,126,0
525,130,127,127,131,131,128,124,125,0
529,130,127,127,130,123,129,129,128,0
533,128,129,127,128,128,129,129,128,0
537,127,129,128,128,128,129,129,128,0
583,127,127,127,125,124,128,129,128,0
589,127,127,128,128,128,128,128,128,0
595,128,129,127,128,127,127,128,127,0
599,127,128,127,129,128,127,128,128,0
604,127,126,128,129,126,126,124,127,0
608,129,127,127,128,128,128,124,127,0
611,129,128,128,127,130,131,129,128,0
614,127,128,127,127,131,129,129,128,0
618,127,127,128,127,129,128,130,128,0
621,127,127,129,127,129,129,129,128,0
627,128,129,128,127,130,128,128,128,0
631,127,128,127,125,129,127,128,129,0
642,130,127,128,129,125,125,129,127,0
637,129,127,127,130,128,128,123,126,0
645,127,127,129,126,129,128,129,128,0
649,126,128,126,127,131,130,130,128,0
651,128,128,128,127,129,126,128,128,0
654,127,128,127,126,128,128,128,128,0
658,127,128,129,128,129,128,128,127,0
661,127,128,129,128,128,127,129,128,0
664,126,127,128,129,127,127,125,126,0
668,129,126,127,129,126,127,124,127,0
671,128,125,127,128,130,131,131,129,0
674,127,129,129,125,127,130,131,128,0
677,127,127,127,126,127,125,127,128,0
679,127,128,128,128,126,127,127,128,0
682,128,128,128,128,126,130,128,128,0
685,127,128,127,129,127,128,128,128,0
689,126,128,127,128,124,128,122,126,0
692,130,127,127,131,128,129,124,126,0
695,127,129,128,127,127,130,130,128,0
698,127,129,128,127,130,130,130,128,0
771,127,128,128,127,129,129,127,128,0
779,128,125,128,127,125,127,128,127,0
784,127,126,128,128,128,127,127,128,0
789,127,128,127,126,127,127,129,128,0
793,126,128,127,129,125,126,123,128,0
797,128,127,128,129,127,126,123,127,0
800,129,127,127,129,121,131,128,128,0
803,128,129,128,124,127,130,130,128,0
809,127,129,127,127,131,127,130,128,0
814,126,127,128,125,126,127,128,127,0
818,129,128,128,127,128,127,129,128,0
821,127,129,127,126,128,127,127,127,0
824,127,128,127,128,127,126,125,126,0
828,131,127,127,131,127,127,122,126,0
831,131,126,127,129,122,130,128,127,0
834,127,129,127,125,123,130,129,128,0
837,127,126,129,128,127,127,129,127,0
841,127,128,128,127,129,128,130,126,0
844,127,127,128,125,126,126,128,129,0
847,127,128,127,125,126,127,128,127,0
850,127,128,128,128,127,123,128,127,0
853,127,126,129,127,129,126,124,125,0
856,129,127,127,130,126,127,126,128,0
860,128,129,128,126,129,129,128,127,0
863,128,128,128,126,127,128,129,127,0
867,130,127,127,125,125,128,130,128,0
870,128,127,127,126,127,128,127,127,0
873,128,128,127,126,128,128,128,127,0
876,128,128,128,129,124,124,122,125,0
879,130,127,128,132,128,128,123,126,0
882,131,126,127,128,122,128,130,126,0
884,128,128,127,125,127,127,130,128,0
888,128,128,127,125,127,126,129,129,0
891,129,127,127,125,127,126,129,128,0
894,127,127,127,125,127,127,128,127,0
899,127,128,127,125,126,127,128,128,0
902,126,128,128,126,126,127,127,127,0
907,128,127,128,127,125,125,127,128,0
913,128,128,127,127,128,128,127,128,0
916,128,127,128,129,128,128,127,128,0
920,127,128,128,128,125,125,126,128,0
922,127,127,127,126,127,124,123,126,0
926,130,126,127,131,127,128,124,126,0
929,127,128,128,127,128,129,129,128,0
932,128,127,128,126,129,128,129,127,0
935,128,128,126,126,128,127,129,127,0
938,127,127,127,127,126,128,129,128,0
941,128,128,128,128,129,128,129,129,0
943,128,127,128,127,129,127,129,127,0
946,127,127,127,127,128,128,127,127,0
949,126,126,128,128,129,128,127,127,0
953,128,128,126,128,129,129,128,128,0
956,127,128,126,129,128,127,128,126,0
958,128,126,127,131,128,128,124,126,0
961,130,127,127,130,129,128,128,128,0
964,127,127,128,127,127,128,130,128,0
968,127,128,127,128,128,126,129,128,0
971,126,128,127,127,128,126,129,128,0
974,127,128,127,126,128,126,127,128,0
977,128,127,128,127,127,129,128,128,0
980,128,127,126,128,129,127,128,128,0
982,127,127,129,127,127,127,128,128,0
985,127,127,127,127,127,128,127,128,0
988,129,129,127,128,128,128,128,128,0
991,128,128,127,127,127,126,128,128,0
995,127,127,126,129,129,129,123,126,0
1001,130,126,127,131,129,129,123,125,0
1005,130,127,126,126,129,128,128,128,0
1010,128,128,128,124,128,128,128,127,0
1013,127,128,127,126,127,127,130,128,0
1015,126,127,127,127,128,127,129,128,0
1018,126,128,126,127,128,126,128,128,0
1022,128,128,127,129,128,126,129,128,0
1025,128,128,127,131,126,128,123,126,0
1027,131,127,127,132,127,127,124,126,0
1030,131,128,126,131,128,127,129,128,0
1033,127,127,130,128,128,127,129,128,0
1036,127,128,130,128,128,127,130,128,0
1039,127,127,128,127,128,127,129,128,0
1042,128,128,126,126,127,127,128,129,0
1046,126,129,127,127,127,127,129,128,0
1050,126,128,128,124,128,126,128,128,0
1053,126,127,128,126,127,127,128,127,0
1056,126,127,128,128,128,128,129,128,0
1060,126,128,128,127,127,128,128,128,0
1062,127,128,128,126,127,123,127,127,0
1067,127,128,128,127,126,128,127,126,0
1070,129,127,129,129,128,130,124,126,0
1073,130,127,127,124,129,130,129,128,0
1076,127,128,128,124,128,129,130,128,0
1079,126,127,128,124,127,128,129,128,0
1082,128,127,128,125,126,128,128,127,0
1085,128,128,128,126,127,129,128,128,0
1088,127,128,127,126,126,128,128,127,0
1094,125,127,129,129,130,129,123,127,0
1098,129,127,127,129,127,128,125,128,0
1102,127,128,126,124,129,128,128,127,0
1107,127,129,127,127,128,127,129,127,0
1110,127,128,128,125,127,125,128,127,0
1112,128,127,128,128,128,128,128,128,0
1115,127,127,127,127,127,127,127,128,0
1118,127,128,129,128,127,127,127,128,0
1122,127,124,128,130,128,129,123,126,0
1125,129,127,128,130,126,128,127,129,0
1128,128,128,127,126,128,130,128,128,0
1131,127,128,128,125,129,128,128,128,0
1134,127,128,126,126,128,127,129,128,0
1138,127,128,127,127,127,128,128,128,0
1141,127,128,128,127,126,127,128,127,0
1144,127,128,126,126,126,127,128,128,0
1147,126,127,127,127,126,125,128,127,0
1150,127,128,127,126,127,127,128,128,0
1153,126,127,128,129,127,128,128,128,0
1156,126,128,128,129,128,127,128,128,0
1159,127,126,127,131,128,127,123,126,0
1164,130,127,127,130,128,128,124,127,0
1167,128,128,128,127,128,129,128,128,0
1170,128,128,128,128,129,127,129,128,0
1174,127,127,128,127,128,127,129,127,0
1177,127,127,128,126,127,127,129,128,0
1180,127,128,127,128,129,127,129,128,0
1183,127,128,128,128,127,126,128,128,0
1186,127,128,128,128,125,126,128,128,0
1192,128,126,128,127,128,127,128,128,0
1196,125,128,128,128,127,127,130,128,0
1199,126,128,128,128,127,127,127,127,0
1202,128,127,128,131,127,127,123,125,0
1205,131,126,128,130,128,128,123,127,0
1208,129,125,130,126,130,128,129,128,0
1211,128,128,127,126,126,126,129,128,0
1214,127,128,128,127,128,127,128,127,0
1218,128,126,128,127,126,127,130,128,0
1221,128,128,128,128,127,128,128,128,0
1224,127,128,127,128,129,128,128,128,0
1227,126,128,127,125,127,123,128,128,0
1232,128,126,129,126,126,126,129,127,0
1236,127,127,128,128,128,129,128,128,0
1239,128,128,128,127,128,129,129,128,0
1242,126,128,128,127,124,126,123,126,0
1245,131,127,128,130,130,129,123,126,0
1248,130,127,127,129,124,129,130,129,0
1251,128,128,127,126,130,130,129,128,0
1254,127,128,128,126,130,128,129,128,0
1258,126,127,127,126,129,127,129,128,0
1261,126,127,127,129,129,126,128,127,0
1264,127,128,127,129,127,128,128,128,0
1268,127,128,127,128,126,123,129,128,0
1271,127,126,127,130,128,128,124,127,0
1273,130,127,128,130,124,124,130,128,0
1276,128,128,127,125,129,129,129,128,0
1279,125,129,127,125,129,128,129,129,0
1284,128,127,128,125,128,128,129,128,0
1288,127,128,128,129,128,128,128,128,0
1292,127,128,127,127,128,128,129,128,0
1295,127,128,127,127,125,126,123,126,0
1298,129,126,128,131,128,129,124,126,0
1301,129,126,127,129,126,129,130,128,0
1304,127,127,127,129,129,128,129,128,0
1307,127,128,128,128,127,128,128,129,0
1311,127,127,128,128,128,128,129,128,0
1314,126,127,127,129,128,127,128,128,0
1320,128,128,128,127,126,128,128,128,0
1323,126,128,128,127,126,127,127,127,0
1326,126,129,128,126,122,125,128,128,0
1329,126,128,127,128,128,128,128,128,0
1332,128,128,127,129,128,129,128,128,0
1335,127,128,129,128,128,126,128,129,0
1338,127,126,128,130,127,127,123,125,0
1341,129,126,128,131,128,128,124,126,0
1344,128,128,127,127,127,129,131,128,0
1349,126,129,127,124,128,128,131,128,0
1352,126,126,128,124,128,127,129,128,0
1356,128,127,128,125,129,129,128,128,0
1359,126,129,127,128,127,128,128,128,0
1361,126,127,127,127,127,127,127,128,0
1364,126,127,129,126,122,128,126,127,0
1368,128,127,128,129,129,131,127,128,0
1371,127,129,128,128,127,131,126,127,0
1376,127,127,129,128,126,130,126,128,0
1381,127,127,128,127,126,129,128,127,0
1385,127,126,128,127,127,130,123,126,0
1388,130,126,128,131,128,130,124,126,0
1391,128,128,128,126,128,128,128,127,0
1394,128,128,126,126,129,128,130,127,0
1397,128,127,128,128,129,126,129,129,0
1399,126,129,129,128,129,127,129,127,0
1402,129,127,129,128,129,127,127,129,0
1406,126,129,128,127,125,128,122,126,0
1409,130,127,127,130,129,128,123,126,0
1412,131,126,127,127,129,128,128,129,0
1415,127,128,126,127,128,128,128,129,0
1418,125,128,126,125,128,126,128,128,0
1422,126,127,126,125,130,128,129,128,0
1426,127,128,126,127,128,128,127,127,0
1429,127,129,128,127,127,127,127,128,0
1432,127,128,127,127,128,126,128,126,0
1435,126,127,127,128,128,127,129,127,0
1438,129,128,127,129,128,129,128,128,0
1441,127,127,128,127,127,126,127,128,0
1444,127,128,128,127,127,124,125,126,0
1447,131,127,127,130,129,128,123,127,0
1449,130,126,128,130,128,127,129,127,0
1452,126,129,127,127,128,127,128,128,0
1455,127,128,127,126,128,127,128,128,0
1460,128,127,127,126,128,127,130,128,0
1463,126,127,127,127,126,127,129,128,0
1467,126,129,128,128,126,128,129,128,0
1473,128,128,127,126,124,125,128,129,0
1476,127,127,128,127,124,126,128,128,0
1479,126,127,128,128,125,127,127,129,0
1482,129,127,128,129,128,127,127,129,0
1485,126,128,127,128,127,123,122,126,0
1488,129,127,127,130,129,128,124,126,0
1492,131,126,127,129,128,127,128,128,0
1495,130,126,128,125,128,127,129,128,0
1498,127,127,128,124,129,127,129,127,0
1501,127,126,128,125,128,125,129,127,0
1504,126,128,130,126,129,128,128,127,0
1507,127,128,127,126,128,128,127,128,0
1510,127,128,126,127,127,128,127,128,0
1513,128,127,127,126,127,126,126,126,0
1516,129,127,127,129,128,129,122,126,0
1519,128,127,128,127,132,128,128,128,0
1522,127,129,127,125,129,128,128,128,0
1525,126,124,127,125,129,128,129,128,0
1528,127,128,127,126,129,129,129,128,0
1532,128,129,129,127,127,128,128,127,0
1537,128,128,128,129,127,125,124,126,0
1539,130,126,127,130,130,128,124,127,0
1542,131,127,127,132,129,130,124,128,0
1545,125,127,127,128,130,131,129,130,0
1549,127,128,127,125,126,127,130,129,0
1552,129,127,127,126,128,127,128,129,0
1555,129,125,126,125,126,127,129,128,0
1559,127,128,128,126,128,128,129,129,0
1564,127,129,127,128,127,125,126,128,0
1569,128,126,128,127,128,126,128,128,0
1572,127,129,127,127,131,127,125,127,0
1576,131,128,128,131,129,130,123,125,0
1578,131,127,128,132,131,129,125,127,0
1582,127,128,127,129,129,126,127,128,0
1585,125,128,127,129,130,130,129,129,0
1588,127,128,128,129,130,129,130,129,0
1593,127,129,128,129,130,131,129,128,0
1597,126,127,128,129,129,129,124,127,0
1599,131,127,127,130,130,131,125,127,0
1602,129,127,127,130,126,130,129,128,0
1605,127,129,127,128,128,130,130,129,0
1609,127,128,127,127,129,128,129,128,0
1612,127,127,128,128,127,128,130,128,0
1616,127,127,127,130,128,128,130,128,0
1620,127,127,128,129,128,126,130,128,0
1623,127,127,128,129,123,126,129,128,0
1626,128,126,129,128,128,124,129,128,0
1629,128,127,128,128,127,127,129,128,0
1632,131,126,128,127,126,123,129,128,0
1635,127,128,129,128,126,128,125,127,0
1638,130,126,127,130,130,128,125,126,0
1641,131,128,128,128,126,127,129,128,0
1644,128,128,129,126,127,127,128,127,0
1648,130,127,128,128,128,126,128,127,0
1651,127,127,128,127,126,126,128,128,0
1656,128,127,128,127,127,127,129,128,0
1663,128,125,127,127,128,126,128,128,0
1666,128,128,129,127,125,125,128,128,0
1670,129,127,128,126,125,122,130,130,0
1673,125,125,128,127,128,128,128,130,0
1676,125,128,126,124,128,125,129,129,0
1679,130,127,130,125,122,124,128,128,0
1682,126,127,129,127,127,125,130,128,0
1685,127,126,128,126,124,126,127,128,0
1688,127,129,131,126,125,127,126,126,0
1691,126,128,128,127,127,126,126,128,0
1694,127,125,128,127,126,125,127,126,0
1698,130,126,128,126,127,127,127,128,0
1701,128,127,127,126,125,127,127,127,0
1705,127,129,127,126,127,126,128,127,0
1709,126,126,127,127,126,126,128,128,0
1713,127,127,127,126,125,125,127,127,0
1716,127,128,128,125,125,127,127,127,0
1719,128,128,127,126,124,123,129,127,0
1722,127,127,127,125,125,127,127,127,0
1724,128,128,127,126,125,125,129,127,0
1731,128,128,127,127,127,128,128,127,0
1734,128,127,126,125,124,127,126,127,0
1737,129,127,129,125,126,124,127,126,0
1740,127,127,126,126,128,128,127,127,0
1743,128,126,127,126,125,127,127,127,0
1746,129,127,129,124,123,125,128,127,0
1751,128,127,128,124,125,126,127,127,0
1755,128,127,128,123,126,127,128,127,0
1759,128,128,127,124,126,128,129,128,0
1764,128,126,127,125,127,126,129,128,0
1771,128,126,127,127,124,127,122,125,0
1775,131,125,127,130,127,128,123,127,0
1778,127,128,127,127,129,127,128,128,0
1781,126,128,128,127,129,126,129,128,0
1783,127,128,129,127,130,126,129,128,0
1786,127,127,129,128,129,127,129,128,0
1789,127,128,129,129,128,127,128,126,0
1792,126,128,129,128,127,127,128,128,0
1796,127,127,129,129,121,125,128,127,0
1799,127,127,130,128,123,127,127,127,0
1803,128,126,129,128,126,129,127,128,0
1806,128,127,129,129,126,126,127,128,0
1809,126,127,129,129,125,126,123,124,0
1812,131,126,128,131,129,128,124,124,0
1816,131,126,127,128,129,129,129,128,0
1819,127,129,127,128,130,129,128,128,0
1822,126,128,127,128,127,126,129,128,0
1826,126,128,129,130,128,126,128,128,0
1829,126,128,127,127,129,128,129,128,0
1832,126,129,128,126,128,128,129,128,0
1836,126,128,127,128,127,130,123,126,0
1844,129,127,126,128,130,130,123,125,0
1847,129,128,128,125,125,131,129,129,0
1851,126,130,127,126,129,131,129,129,0
1855,127,130,127,126,130,130,130,129,0
1858,126,129,128,127,130,129,130,128,0
1861,127,128,128,127,130,128,128,129,0
1865,127,128,129,122,128,126,128,128,0
1869,127,127,128,122,126,126,121,126,0
1874,130,125,128,126,130,130,125,127,0
1879,130,128,129,126,123,131,129,129,0
1883,128,129,127,123,129,129,129,128,0
1889,126,129,127,124,130,128,129,128,0
1892,126,128,129,125,129,129,129,129,0
1895,126,127,127,127,128,130,129,128,0
1898,126,128,128,128,128,129,128,128,0
1901,126,128,128,128,129,128,127,127,0
1903,128,125,128,131,127,129,122,127,0
1906,130,128,127,131,129,130,123,127,0
1910,128,129,128,127,128,128,128,129,0
1913,127,128,127,126,129,129,129,128,0
1917,127,128,128,127,128,126,128,128,0
1920,127,128,127,129,127,128,127,129,0
1923,127,130,127,129,127,128,127,128,0
1926,126,129,128,129,127,126,128,129,0
1928,127,128,128,129,126,127,129,128,0
1931,127,129,128,129,128,128,127,128,0
1934,127,129,128,130,128,128,128,128,0
1937,128,128,128,129,127,125,128,127,0
1939,128,126,128,132,130,128,123,127,0
1942,129,128,126,131,130,130,123,127,0
1945,130,128,126,128,130,131,129,128,0
1948,127,128,128,129,129,129,129,129,0
1952,127,128,129,127,129,128,128,128,0
1954,127,128,128,127,130,128,128,128,0
1958,127,128,127,130,128,129,129,128,0
1961,126,128,127,129,128,127,128,127,0
1964,127,126,128,128,128,127,129,128,0
1968,127,127,129,128,130,125,129,127,0
1971,127,128,128,129,130,129,127,128,0
1975,128,128,128,129,128,129,128,127,0
1979,127,127,126,131,129,129,124,126,0
1983,130,127,127,130,131,130,124,126,0
1986,130,128,128,127,129,131,130,129,0
1989,126,128,127,126,130,128,130,129,0
1992,126,129,129,126,125,126,128,128,0
1995,127,129,130,127,129,129,130,128,0
1999,127,128,127,127,127,129,129,128,0
2002,126,128,128,129,128,127,129,128,0
2006,126,127,127,127,124,127,126,125,0
2010,128,127,126,130,127,129,123,126,0
2013,130,128,127,128,126,124,130,126,0
2016,130,129,128,125,126,126,128,128,0
2018,125,127,128,126,128,128,130,127,0
2021,127,128,129,124,126,127,128,128,0
2024,128,128,127,125,129,130,128,129,0
2027,126,129,127,126,128,129,127,128,0
2031,127,128,129,125,129,127,127,125,0
2034,128,127,127,129,129,129,124,126,0
2038,129,127,126,130,126,129,129,128,0
2041,126,129,127,129,129,128,129,128,0
2044,128,126,128,126,127,129,130,128,0
2047,127,128,128,126,126,127,127,127,0
2051,127,128,128,128,129,126,127,127,0
2054,125,128,128,130,128,127,128,128,0
2058,127,128,126,127,127,126,124,126,0
2061,127,128,125,131,128,127,125,127,0
2064,127,128,126,131,126,123,132,130,0
2067,126,129,127,126,127,127,129,128,0
2069,126,128,129,126,126,127,128,128,0
2073,127,126,129,127,126,128,129,130,0
2077,127,127,129,128,128,129,129,127,0
2084,127,129,129,126,127,128,128,128,0
2088,126,128,129,127,125,127,127,127,0
2092,129,127,128,131,129,129,122,125,0
2096,129,127,126,130,127,125,127,128,0
2099,129,127,128,127,126,128,129,128,0
2101,129,126,128,128,128,129,127,128,0
2104,124,126,129,128,131,128,129,128,0
2108,125,128,128,126,128,127,129,128,0
2111,127,127,128,127,128,129,127,127,0
2115,128,129,128,126,127,128,127,126,0
2119,128,126,128,128,129,129,127,127,0
2122,127,128,126,126,126,128,126,127,0
2127,129,128,128,126,127,127,126,128,0
2131,127,128,126,126,126,127,126,128,0
2134,127,126,127,131,127,128,122,126,0
2144,131,127,126,131,128,129,124,126,0
2148,126,128,128,129,128,130,130,128,0
2151,130,126,129,127,125,126,129,127,0
2154,128,125,128,129,127,126,130,128,0
2158,126,127,129,126,127,129,128,128,0
2161,130,128,127,128,126,128,126,127,0
2165,127,128,127,127,126,127,129,127,0
2168,126,128,126,126,126,127,128,128,0
2171,126,128,126,127,123,124,128,128,0
2174,127,128,127,128,127,127,127,127,0
2176,128,128,126,129,127,127,126,128,0
2180,128,128,127,128,127,125,127,128,0
2182,126,127,126,128,126,128,128,129,0
2185,128,128,127,128,126,128,127,128,0
2190,127,128,127,128,127,128,128,127,0
2194,126,126,127,128,126,126,126,128,0
2200,127,126,127,128,125,128,127,128,0
2204,126,127,127,128,128,127,128,128,0
2207,128,127,126,128,128,128,128,127,0
2210,130,127,126,130,129,128,123,126,0
2213,130,126,128,130,129,128,124,125,0
2216,129,126,129,127,127,129,130,128,0
2219,126,128,127,125,128,129,128,128,0
2222,128,127,128,126,128,128,128,128,0
2224,128,127,129,126,128,127,129,128,0
2227,127,127,128,127,129,127,128,128,0
2231,127,128,127,128,127,128,128,128,0
2234,127,128,128,128,126,126,128,127,0
2236,127,127,128,128,126,125,128,127,0
2239,128,128,128,128,127,127,127,128,0
2242,127,129,127,129,128,127,130,128,0
2245,127,127,127,128,127,126,128,128,0
2249,127,128,126,127,128,126,127,127,0
2253,130,126,127,130,127,129,123,127,0
2260,127,128,127,126,128,126,128,128,0
2256,130,128,126,131,129,127,127,127,0
2263,127,128,127,127,128,127,128,128,0
2266,127,128,127,128,127,127,128,128,0
2269,128,128,128,127,128,128,129,127,0
2272,127,128,128,127,129,127,129,129,0
2275,125,127,128,127,126,128,129,128,0
2278,126,127,128,129,129,129,128,128,0
2282,128,127,127,129,128,128,126,128,0
2286,128,128,128,128,126,127,129,127,0
2289,126,126,129,128,128,128,126,128,0
2294,127,128,127,129,126,129,127,128,0
2300,126,128,126,129,127,128,126,128,0
2304,126,126,127,128,123,129,123,127,0
2309,130,127,126,130,130,130,123,126,0
2313,130,127,126,130,129,127,129,128,0
2316,127,128,127,126,129,129,129,129,0
2319,127,128,127,127,127,128,128,127,0
2321,127,127,128,127,127,125,128,127,0
2324,128,127,128,127,127,127,126,127,0
2328,128,128,128,127,129,127,127,128,0
2332,127,128,128,127,126,126,128,128,0
2336,126,127,129,128,129,128,122,126,0
2339,129,128,126,129,127,128,125,128,0
2341,127,128,127,127,128,129,131,127,0
2344,127,128,128,126,129,128,130,127,0
2348,127,128,127,126,128,127,130,127,0
2350,129,127,127,126,129,127,129,128,0
2355,128,128,127,127,128,128,129,128,0
2359,127,127,128,125,128,126,130,128,0
2362,127,127,127,126,122,127,129,128,0
2365,126,127,127,126,128,128,129,128,0
2368,127,128,127,126,127,127,128,128,0
2371,127,128,126,126,126,126,128,128,0
2374,125,128,130,130,129,127,123,126,0
2379,129,128,128,128,128,129,123,126,0
2382,128,129,128,125,127,129,129,128,0
2385,126,129,126,126,127,128,129,128,0
2389,127,129,127,126,126,127,129,128,0
2392,127,127,129,125,126,128,127,128,0
2395,127,128,128,128,128,129,128,127,0
2399,128,128,128,127,128,128,128,128,0
2402,127,127,128,127,126,127,127,128,0
2406,128,127,126,129,129,129,123,126,0
2413,129,128,128,130,129,129,130,129,0
2417,126,129,127,126,130,129,129,129,0
2419,127,128,128,125,128,126,129,128,0
2422,127,128,129,125,126,128,127,127,0
2426,127,129,128,126,129,127,128,128,0
2429,126,127,126,127,129,127,129,127,0
2431,126,128,128,126,129,128,130,127,0
2434,126,128,129,129,129,129,123,126,0
2437,128,127,126,129,126,126,129,128,0
2444,127,128,127,126,127,129,129,128,0
2448,126,128,128,126,127,126,130,128,0
2451,124,127,126,126,127,127,129,128,0
2457,127,127,127,127,129,128,128,128,0
2460,127,128,127,128,128,127,128,128,0
2463,127,128,127,128,126,124,122,126,0
2466,129,126,127,131,127,129,123,126,0
2469,128,127,127,128,126,130,128,128,0
2475,128,129,127,129,129,129,129,128,0
2478,128,128,128,125,128,127,129,129,0
2482,126,127,128,128,126,127,129,127,0
2486,126,128,127,129,128,128,128,128,0
2490,127,128,126,129,128,127,127,127,0
2494,128,128,128,128,127,126,127,127,0
2497,126,126,128,130,130,128,123,126,0
2501,131,127,127,129,128,128,125,127,0
2504,127,128,128,126,128,126,129,127,0
2507,127,128,127,126,129,127,130,128,0
2511,128,127,128,125,127,127,130,128,0
2514,128,127,127,127,128,128,128,128,0
2517,127,127,127,128,128,127,129,128,0
2522,128,127,127,128,128,127,129,128,0
2525,129,126,129,130,128,127,123,126,0
2530,130,126,127,130,126,127,126,128,0
2535,130,128,129,126,127,128,129,128,0
2541,126,127,129,127,126,127,130,127,0
2547,126,127,128,126,127,126,129,129,0
2550,127,127,127,127,127,129,127,128,0
2554,128,128,127,128,129,128,128,128,0
2557,127,128,127,127,129,127,128,128,0
2560,128,126,128,127,128,124,129,128,0
2563,127,127,127,127,126,125,128,128,0
2567,127,129,126,128,127,128,129,128,0
2570,127,128,127,129,128,128,128,128,0
2572,128,127,127,131,128,128,124,125,0
2575,130,127,127,131,128,128,125,127,0
2578,129,129,128,129,129,129,128,128,0
2581,129,128,127,128,127,128,129,128,0
2584,127,128,126,127,127,130,128,129,0
2587,128,127,129,127,127,130,129,128,0
2591,128,128,127,128,126,129,129,127,0
2594,127,129,126,127,127,129,127,127,0
2597,129,127,130,126,127,127,127,127,0
2600,128,127,128,126,126,126,126,127,0
2604,129,128,127,127,128,128,127,127,0
2608,128,128,127,128,128,127,129,127,0
2612,126,127,127,131,128,127,123,125,0
2615,131,126,128,130,129,127,123,126,0
2619,129,126,129,127,129,127,129,128,0
2622,127,129,126,126,129,128,130,127,0
2625,130,128,130,126,135,126,128,127,0
2628,129,128,127,127,136,126,128,129,0
2632,126,127,128,129,133,127,128,128,0
2635,128,128,127,129,131,129,127,128,0
2640,128,127,128,129,129,124,128,128,0
2644,127,128,128,127,127,128,127,128,0
2648,125,127,128,130,126,129,128,128,0
2651,128,128,127,130,128,128,129,127,0
2654,126,127,128,130,121,127,124,126,0
2657,129,126,129,131,127,128,123,126,0
2660,129,127,127,128,126,129,130,128,0
2663,126,128,129,126,127,128,129,128,0
2665,126,126,129,127,128,128,130,128,0
2669,126,128,126,126,127,128,128,128,0
2672,126,128,127,127,126,128,127,127,0
2677,128,128,126,126,127,127,127,128,0
2686,127,127,127,128,125,124,128,127,0
2691,127,127,127,127,127,127,127,126,0
2696,128,127,126,129,126,129,128,128,0
2700,127,126,128,130,126,128,127,128,0
2703,127,127,128,129,119,128,122,126,0
2705,131,126,128,131,127,128,123,125,0
2709,131,127,126,129,122,127,128,128,0
2714,126,129,126,128,127,131,130,129,0
2718,128,128,126,125,127,128,128,128,0
2721,126,129,128,128,125,127,128,127,0
2724,129,128,127,127,127,129,127,128,0
2729,127,129,127,128,128,130,128,128,0
2732,127,129,127,127,128,129,128,128,0
2736,126,127,128,128,129,128,128,128,0
2741,129,127,127,129,126,128,124,127,0
2745,128,127,129,129,128,128,129,128,0
2749,127,129,127,126,125,127,128,126,0
2753,125,128,130,127,125,126,129,128,0
2756,127,128,127,127,128,129,127,128,0
2760,126,128,127,128,127,128,128,127,0
2767,128,127,127,127,124,129,128,129,0
2770,126,126,126,132,130,129,123,126,0
2773,130,126,128,130,128,128,125,127,0
2777,127,126,130,129,130,129,129,127,0
2780,125,127,127,127,129,128,129,128,0
2783,126,128,129,127,128,129,129,128,0
2786,126,127,129,125,128,128,128,128,0
2790,127,127,127,127,126,129,128,127,0
2793,127,128,127,128,127,128,128,127,0
2797,125,126,127,128,126,126,128,127,0
2800,127,127,129,128,128,127,129,128,0
2804,127,128,127,128,128,128,128,128,0
2808,126,128,128,127,125,124,129,127,0
2811,127,127,127,130,129,127,123,126,0
2814,130,126,126,130,129,128,123,126,0
2817,127,127,128,128,129,128,128,128,0
2821,126,129,126,125,129,127,128,128,0
2824,125,128,127,125,124,126,128,128,0
2829,126,126,128,128,128,127,128,129,0
2832,128,128,126,127,127,127,128,128,0
2836,127,128,127,128,128,127,127,128,0
2839,127,128,128,127,124,127,126,128,0
2842,126,127,127,130,128,129,122,126,0
2846,130,127,127,127,125,126,129,128,0
2849,127,129,126,127,129,128,128,128,0
2853,128,127,127,126,127,128,128,127,0
2856,127,128,127,127,129,128,127,127,0
2859,128,129,127,128,128,128,127,127,0
2862,128,129,127,127,128,128,130,127,0
2864,127,127,127,125,128,126,128,128,0
2868,127,127,127,128,127,125,123,126,0
2872,131,127,127,131,128,126,128,127,0
2876,128,128,128,127,129,129,129,128,0
2881,128,128,129,127,129,126,130,127,0
2885,125,127,128,127,128,127,130,127,0
2888,128,127,128,127,127,129,128,127,0
2890,128,128,127,127,127,128,129,127,0
2894,126,127,127,126,126,126,127,128,0
2898,127,127,128,128,127,128,122,126,0
2900,131,126,128,130,124,125,125,127,0
2904,127,128,130,128,129,128,129,128,0
2907,130,124,129,129,126,126,128,128,0
2910,126,127,129,125,129,127,128,128,0
2914,129,128,127,127,128,129,128,128,0
2916,127,128,127,125,128,128,128,128,0
2919,126,127,127,128,127,125,128,128,0
2922,128,126,126,130,130,128,123,126,0
2925,130,127,128,129,125,127,128,128,0
2929,127,129,128,127,128,128,129,128,0
2932,126,129,129,127,129,126,128,128,0
2935,127,128,127,128,128,128,128,129,0
2939,127,128,127,126,129,128,127,128,0
2942,127,128,128,128,127,127,128,128,0
2944,127,128,127,127,127,127,129,128,0
2949,127,126,127,129,128,128,124,125,0
2951,130,127,128,127,125,125,132,127,0
2954,127,128,127,127,129,131,131,128,0
2959,127,128,126,126,128,129,130,128,0
2963,126,127,128,127,127,128,128,128,0
2966,127,128,126,127,127,128,128,127,0
2969,127,128,127,128,128,128,128,127,0
2972,127,128,127,128,127,128,127,127,0
2976,127,128,127,128,128,127,125,127,0
2980,129,127,127,130,126,126,127,127,0
2985,128,128,126,129,130,128,129,128,0
2990,127,128,127,128,129,127,130,128,0
2993,127,128,127,128,128,124,128,127,0
2997,127,128,127,127,127,128,127,128,0
3000,127,129,127,128,129,129,126,129,0
3004,128,128,127,128,128,127,128,125,0
3008,130,127,128,129,128,127,123,126,0
3011,131,126,129,130,129,125,128,129,0
3014,127,128,128,127,128,127,128,129,0
3018,127,128,129,127,128,127,129,128,0
3021,127,128,129,126,128,127,129,127,0
3024,128,127,128,127,126,127,130,127,0
3026,126,127,129,127,128,127,129,127,0
3030,127,127,127,127,128,126,128,127,0
3032,127,127,129,127,126,126,128,128,0
3035,127,127,129,126,123,127,127,127,0
3038,127,128,129,127,127,128,127,128,0
3045,127,128,129,127,128,127,126,128,0
3048,127,127,129,127,128,127,127,128,0
3053,128,127,129,127,129,128,126,128,0
3058,128,128,128,128,128,129,127,127,0
3062,129,128,128,127,128,127,128,127,0
3064,127,128,127,128,127,127,124,126,0
3069,129,128,126,130,127,128,123,125,0
3072,129,128,129,128,128,130,129,127,0
3077,129,129,126,127,127,129,129,127,0
3080,126,127,127,127,127,127,128,127,0
3083,127,127,127,127,127,127,128,128,0
3086,127,128,127,128,127,128,127,128,0
3090,127,128,127,127,128,129,127,127,0
3094,128,128,127,127,126,125,128,127,0
3098,126,127,126,127,125,127,127,126,0
3101,127,128,125,127,128,129,128,128,0
3111,128,128,125,127,126,124,127,128,0
3115,125,127,125,127,125,126,122,126,0
3119,130,126,125,129,126,128,122,125,0
3121,130,127,125,128,124,125,128,128,0
3124,126,128,126,124,129,128,127,128,0
3128,127,128,126,126,128,128,128,128,0
3131,126,126,127,127,125,127,129,127,0
3134,127,128,126,128,128,128,129,128,0
3138,127,129,128,126,129,128,129,128,0
3141,127,128,128,130,127,127,123,126,0
3149,129,127,127,130,129,127,124,127,0
3153,130,127,128,128,130,128,130,129,0
3156,126,129,126,127,129,128,129,128,0
3160,125,129,127,128,127,129,129,128,0
3163,126,127,127,127,126,127,131,128,0
3166,125,128,128,128,126,128,128,128,0
3169,127,129,128,128,128,129,128,128,0
3173,127,127,131,128,127,129,130,127,0
3176,126,127,129,128,122,128,128,128,0
3185,127,126,127,129,127,129,129,128,0
3189,128,128,128,128,129,129,128,127,0
3193,128,128,128,128,130,129,128,128,0
3196,128,127,129,130,130,129,123,126,0
3200,132,126,129,131,128,127,131,128,0
3203,128,128,127,127,130,130,128,128,0
3206,129,128,128,125,130,131,129,129,0
3211,127,128,129,128,129,129,130,128,0
3216,128,128,128,125,130,129,128,128,0
3219,128,128,128,128,129,129,128,127,0
3228,128,128,128,127,129,128,129,128,0
3232,128,128,128,126,128,129,129,127,0
3235,128,128,129,128,130,129,128,128,0
3238,128,128,128,128,127,129,127,128,0
3242,128,128,129,128,130,129,129,128,0
3245,128,127,129,127,126,127,129,128,0
3249,128,128,128,127,124,127,125,127,0
3252,128,127,128,129,127,128,126,127,0
3255,128,126,129,129,127,127,125,127,0
3258,128,128,128,129,128,126,126,126,0
3262,129,127,128,129,130,129,127,127,0
3276,128,129,129,126,128,130,132,128,0
3280,125,129,128,125,129,130,132,129,0
3284,126,126,129,123,126,127,131,129,0
3287,125,128,129,126,128,128,128,127,0
3291,130,128,127,125,127,129,129,128,0
3294,127,128,126,127,127,129,129,128,0
3297,124,127,128,128,126,128,121,125,0
3301,129,126,126,130,128,129,122,126,0
3309,131,126,127,127,128,130,127,128,0
3312,127,128,126,126,128,130,130,128,0
3316,126,127,127,126,128,125,129,128,0
3319,126,127,127,127,128,127,128,128,0
3323,127,127,127,128,129,130,130,128,0
3327,129,129,127,128,128,129,127,128,0
3330,126,128,127,128,128,126,124,125,0
3333,131,127,127,131,128,128,122,125,0
3336,129,128,127,128,129,130,129,126,0
3341,127,129,127,127,128,128,129,128,0
3349,127,129,127,127,127,128,128,128,0
3352,128,127,129,127,127,128,128,131,0
3355,127,128,128,128,128,129,127,128,0
3359,127,126,126,128,127,129,130,128,0
3362,126,128,126,127,123,124,123,126,0
3366,129,127,125,128,126,125,124,126,0
3369,128,127,126,127,129,129,128,128,0
3372,129,128,127,126,128,127,128,130,0
3375,126,127,128,127,129,127,128,128,0
3379,127,128,127,127,127,129,130,127,0
3382,127,127,127,127,129,129,129,128,0
3392,127,126,128,128,128,129,129,128,0
3397,127,126,128,127,123,123,125,127,0
3400,128,127,127,129,126,127,124,126,0
3403,129,127,127,128,126,130,127,128,0
3407,127,129,126,126,128,130,130,128,0
3410,127,129,128,127,129,127,130,128,0
3415,127,125,126,128,125,125,123,126,0
3419,128,127,129,129,127,126,129,128,0
3424,130,127,129,127,130,127,130,127,0
3428,126,126,129,128,130,126,128,128,0
3432,129,125,129,127,123,127,130,128,0
3437,129,125,128,128,130,127,130,128,0
3442,127,128,129,128,125,129,129,128,0
3445,126,128,131,125,126,125,129,127,0
3448,126,127,130,127,126,125,121,124,0
3452,129,127,127,130,128,127,124,129,0
3455,127,128,129,127,128,127,129,128,0
3458,126,127,130,125,125,125,126,128,0
3462,127,128,130,127,127,127,127,127,0
3473,127,126,129,127,132,126,128,128,0
3481,127,128,128,128,127,127,126,128,0
3484,127,128,129,126,128,127,127,128,0
3487,127,127,128,127,122,127,126,128,0
3491,129,126,130,126,128,129,127,127,0
3494,127,128,127,126,127,127,126,128,0
3497,127,128,130,127,126,126,126,127,0
3501,129,124,127,130,129,127,122,126,0
3504,131,126,127,129,129,128,124,127,0
3507,130,126,128,127,130,127,127,128,0
3511,128,126,127,125,126,129,127,128,0
3514,126,126,127,127,130,130,128,128,0
3517,126,128,127,128,128,128,128,127,0
3521,127,129,127,128,127,128,128,127,0
3524,128,128,127,128,127,128,129,128,0
3527,127,128,126,127,125,124,127,127,0
3531,127,127,126,128,127,128,128,128,0
3534,128,128,126,128,125,128,128,128,0
3537,127,128,125,129,126,126,128,128,0
3541,127,127,127,129,126,127,128,128,0
3544,127,126,126,128,124,126,127,128,0
3548,127,129,125,129,127,127,127,127,0
3552,128,128,127,128,127,127,127,127,0
3555,127,127,126,130,127,127,124,126,0
3574,129,127,127,130,128,127,124,126,0
3581,128,126,126,125,129,128,128,128,0
3585,127,128,127,127,129,127,129,128,0
3589,127,128,127,125,128,127,129,128,0
3592,128,127,128,127,127,127,128,128,0
3595,128,128,127,128,127,127,127,127,0
3604,127,127,128,126,127,124,128,127,0
3599,127,128,127,127,126,127,128,127,0
3610,126,127,128,127,127,125,127,127,0
3614,127,128,127,127,128,128,127,128,0
3618,127,129,127,128,127,127,127,128,0
3621,127,128,127,127,125,128,125,125,0
3624,129,127,127,131,128,129,124,126,0
3627,130,128,126,130,124,129,130,128,0
3631,128,129,127,128,129,129,128,128,0
3634,127,128,126,126,128,127,129,128,0
3637,126,127,127,127,129,125,129,128,0
3640,126,128,128,125,129,127,128,128,0
3644,127,128,127,126,128,128,128,127,0
3647,127,128,128,126,128,124,125,126,0
3652,129,126,128,130,128,128,123,126,0
3655,129,127,129,130,122,130,130,129,0
3659,127,128,128,128,129,129,130,128,0
3662,126,129,128,127,129,127,130,128,0
3665,128,128,128,125,129,128,129,128,0
3669,126,127,128,126,130,127,129,128,0
3672,127,128,128,128,129,126,128,129,0
3675,127,128,128,127,128,126,129,128,0
3679,127,128,128,128,127,125,125,127,0
3688,128,127,127,129,127,127,125,127,0
3692,129,125,129,127,129,128,129,128,0
3695,128,128,128,125,128,129,129,128,0
3699,128,128,129,126,129,129,129,127,0
3702,126,128,128,125,129,130,128,128,0
3705,127,128,127,125,128,130,128,128,0
3708,127,128,127,126,125,128,128,127,0
3713,127,126,126,130,129,129,123,126,0
3718,130,127,127,131,130,127,126,128,0
3722,127,128,126,129,132,129,129,128,0
3725,127,128,127,127,130,128,129,128,0
3729,127,126,127,127,127,126,129,129,0
3732,127,127,127,127,130,128,129,128,0
3735,128,128,126,126,129,130,129,128,0
3739,127,128,126,128,130,128,128,129,0
3742,127,127,128,125,126,126,129,128,0
3745,129,126,128,130,127,129,123,126,0
3749,130,127,127,128,127,130,129,128,0
3752,127,129,128,128,127,129,131,128,0
3767,127,127,127,126,128,129,131,129,0
3771,126,127,127,128,126,126,124,127,0
3775,128,129,127,125,128,130,130,128,0
3779,130,129,127,126,128,130,130,129,0
3782,126,128,129,127,127,125,124,127,0
3785,128,127,127,129,127,127,126,127,0
3789,128,127,130,127,128,128,130,127,0
3792,128,128,129,128,132,129,130,127,0
3795,126,128,128,126,131,125,128,127,0
3799,127,127,127,127,126,128,128,128,0
3803,127,128,127,128,127,127,128,128,0
3808,128,129,127,125,127,127,126,128,0
3811,130,129,127,128,129,128,128,128,0
3814,127,128,127,130,125,125,124,127,0
3817,128,128,126,129,126,126,124,127,0
3821,129,129,127,126,127,127,129,128,0
3824,127,128,126,127,123,125,127,127,0
3827,130,127,125,130,127,129,123,125,0
3831,130,127,127,128,130,130,130,128,0
3880,126,129,128,128,129,130,128,129,0
3887,127,128,128,127,127,126,129,128,0
3891,127,125,127,126,127,127,128,127,0
3895,128,128,127,127,130,131,127,128,0
3898,127,128,127,127,131,129,130,128,0
3950,126,127,128,128,126,127,129,128,0
3960,129,126,126,131,129,127,123,125,0
3966,131,127,127,130,127,123,128,128,0
4016,128,129,128,126,130,129,130,126,0
4027,127,129,128,127,129,126,129,129,0
4038,126,127,128,127,127,126,128,129,0
4047,128,128,128,128,130,129,130,128,0
4052,128,128,127,128,128,128,131,129,0
4083,127,127,130,127,126,125,123,126,0
4092,129,127,129,129,129,129,123,127,0
4102,130,127,127,129,129,130,127,128,0
4151,127,128,128,125,126,129,129,129,0
4162,127,128,129,126,127,128,129,129,0
4169,127,127,128,126,128,126,130,126,0
4175,127,127,128,127,128,127,130,127,0
4180,128,128,128,127,128,127,129,128,0
4222,126,128,127,126,125,126,127,128,0
4232,127,128,128,128,124,129,123,126,0
4237,129,127,128,130,127,130,124,127,0
4245,128,128,127,127,129,129,128,128,0
4250,127,128,126,127,129,128,128,128,0
4254,127,127,128,127,125,127,124,127,0
4257,131,128,126,130,130,130,125,127,0
4261,131,129,126,130,125,126,130,129,0
4266,127,129,128,127,128,128,130,128,0
4270,126,128,127,129,130,130,125,127,0
4273,129,128,126,127,130,130,126,127,0
4277,130,129,127,127,131,131,132,128,0
4280,126,129,126,126,130,130,130,128,0
4284,126,127,127,127,130,129,132,128,0
4287,127,128,127,127,131,130,131,128,0
4291,127,129,127,126,127,129,130,128,0
4294,126,128,127,127,130,124,129,127,0
4298,127,128,128,126,124,124,125,126,0
4301,129,126,126,130,131,128,123,126,0
4304,129,126,127,128,130,130,129,128,0
4308,128,128,128,128,127,125,129,127,0
4311,127,127,128,127,127,128,128,127,0
4315,126,127,128,128,126,126,128,127,0
4318,127,127,128,129,130,125,128,127,0
4321,127,127,129,127,127,127,127,127,0
4325,127,127,128,127,126,125,127,128,0
4329,127,127,128,127,127,126,128,127,0
4331,128,127,128,127,126,126,127,128,0
4336,127,128,128,128,126,126,127,128,0
4339,126,128,129,127,126,126,127,127,0
4342,127,127,128,127,127,126,128,128,0
4352,127,127,127,127,127,126,127,127,0
4355,127,127,127,128,125,127,127,128,0
4361,126,127,128,128,124,124,126,127,0
4366,127,127,129,128,125,125,127,127,0
4370,128,127,128,129,125,126,127,126,0
4375,128,127,129,129,127,126,128,127,0
4379,127,124,128,127,124,122,125,127,0
4382,127,127,129,128,122,126,127,128,0
4386,124,126,129,128,128,128,126,127,0
4389,128,127,127,127,126,127,126,128,0
4391,128,128,128,125,120,124,128,128,0
4394,126,126,130,127,125,125,128,128,0
4397,128,127,127,127,125,124,126,128,0
4399,131,129,126,129,128,126,125,127,0
4402,128,128,126,127,128,124,124,127,0
4405,130,127,126,131,130,128,121,125,0
4419,130,128,127,128,131,129,128,128,0
4422,127,128,127,127,130,129,128,128,0
4426,126,129,127,128,128,125,130,128,0
4430,127,127,127,128,127,126,129,127,0
4488,129,126,130,128,129,127,129,128,0
4499,127,128,125,127,129,129,127,128,0
4506,128,129,127,126,126,126,127,128,0
4512,128,127,128,125,123,127,128,127,0
4517,127,128,128,126,127,128,126,127,0
4522,129,127,128,127,127,128,128,127,0
4527,127,128,127,127,128,127,128,127,0
4531,127,127,130,127,126,125,129,128,0
4536,127,127,127,128,127,127,129,127,0
4539,128,128,127,128,124,127,128,128,0
4543,128,128,128,128,126,126,127,128,0
4546,128,128,127,127,126,126,127,127,0
4552,128,128,127,128,125,126,127,127,0
4557,128,128,127,129,126,126,127,126,0
4560,127,127,128,128,124,125,128,126,0
4563,127,126,129,128,124,124,128,125,0
4569,127,126,129,128,125,124,126,126,0
4572,128,127,127,127,126,125,127,126,0
4576,128,126,129,126,125,125,127,126,0
4582,128,127,128,127,127,125,128,127,0
4586,127,125,127,127,125,126,128,127,0
4591,130,126,128,126,125,127,128,127,0
4594,127,126,128,126,126,127,128,127,0
4598,128,126,126,127,126,128,129,127,0
4602,127,126,126,130,128,129,123,126,0
4605,128,127,127,127,127,129,128,128,0
4608,128,128,127,126,127,128,129,128,0
4612,127,127,128,126,129,127,126,127,0
4615,129,127,127,129,128,128,125,127,0
4618,128,129,126,127,125,128,129,126,0
4621,128,127,128,127,129,128,130,127,0
4625,127,128,127,127,130,124,125,126,0
4628,131,126,128,129,128,129,124,126,0
4632,131,129,127,127,130,128,129,129,0
4635,127,130,127,128,126,129,129,128,0
4638,126,129,127,127,129,125,129,129,0
4642,126,128,129,127,126,128,128,129,0
4648,127,128,127,128,130,128,128,129,0
4653,127,129,128,126,126,130,128,129,0
4656,127,129,127,127,128,126,122,126,0
4660,130,126,127,130,128,129,123,127,0
4663,130,129,126,129,127,127,131,129,0
4667,126,130,127,126,129,128,131,129,0
4670,126,129,127,126,129,126,130,129,0
4679,125,129,128,126,130,127,129,129,0
4682,128,128,126,127,127,128,127,129,0
4686,127,128,128,128,127,128,129,128,0
4689,127,129,128,128,129,125,123,127,0
4692,131,127,127,131,129,129,124,127,0
4696,130,127,126,130,124,130,129,128,0
4699,127,129,128,128,129,129,129,129,0
4702,126,129,128,129,130,128,129,128,0
4705,127,127,128,127,129,130,128,128,0
4709,126,128,128,126,129,130,129,128,0
4712,128,128,128,127,128,129,129,128,0
4715,127,128,128,126,128,127,125,126,0
4718,130,125,129,129,128,128,124,127,0
4722,129,127,127,130,127,127,126,127,0
4725,129,129,128,126,128,128,127,128,0
4729,126,129,127,127,127,128,130,128,0
4732,127,127,128,127,128,127,128,128,0
4736,128,128,128,127,131,128,128,128,0
4739,128,128,128,129,129,128,129,127,0
4742,128,128,127,127,129,126,128,128,0
4757,126,128,128,130,129,129,123,126,0
4761,129,128,128,131,129,129,124,127,0
4766,128,128,127,127,128,129,129,128,0
4770,127,129,128,127,128,127,128,128,0
4774,126,127,128,125,129,127,128,128,0
4822,127,127,127,128,128,128,128,128,0
4833,128,127,127,128,129,127,127,127,0
4840,128,128,128,126,127,124,128,126,0
4844,129,127,127,131,128,126,124,126,0
4848,130,126,128,128,127,125,129,128,0
4853,128,128,127,127,128,129,129,128,0
4858,128,129,128,125,129,128,129,128,0
4862,127,128,128,127,129,127,129,129,0
4865,127,128,128,126,127,128,128,128,0
4870,128,128,128,128,129,129,128,128,0
4873,128,129,126,128,128,128,128,128,0
4877,127,128,128,125,126,129,123,126,0
4880,129,127,127,129,128,128,123,127,0
4883,128,128,126,127,129,129,128,128,0
4887,127,129,128,126,128,128,129,127,0
4890,127,129,127,127,127,127,128,128,0
4893,126,127,127,127,129,128,129,127,0
4897,127,128,128,126,127,128,128,128,0
4900,128,127,128,127,127,127,128,128,0
4904,128,126,129,128,126,124,124,126,0
4907,130,126,127,131,127,128,123,125,0
4910,128,127,128,126,129,127,128,127,0
4914,127,128,128,129,128,127,129,127,0
4917,125,127,127,127,128,127,129,127,0
4920,126,127,129,125,127,127,128,127,0
4924,127,128,127,127,127,128,127,128,0
4927,127,129,127,128,127,128,127,128,0
4930,127,128,127,127,126,125,124,126,0
4933,129,127,126,130,128,129,123,127,0
4937,129,127,127,125,128,129,128,128,0
4940,127,128,125,125,128,129,128,129,0
4944,127,128,127,126,129,129,129,128,0
4947,128,128,127,126,128,129,129,128,0
4950,126,127,127,127,128,129,128,128,0
4953,127,128,125,128,128,129,129,128,0
4957,128,128,127,127,125,126,125,126,0
4963,129,127,127,131,128,128,123,127,0
4967,131,127,126,128,128,128,130,128,0
4970,128,128,126,128,128,128,129,127,0
4972,127,127,128,125,127,126,128,128,0
4975,126,127,127,125,128,127,128,128,0
4979,126,128,127,127,127,129,129,129,0
4983,128,128,126,126,127,128,128,128,0
4986,126,128,127,126,126,127,128,128,0
4989,126,127,127,131,128,127,123,126,0
4992,130,127,127,130,123,128,127,128,0
4995,128,128,129,128,128,127,129,128,0
4999,127,128,128,126,129,126,129,128,0
5002,127,128,129,125,127,126,127,128,0
5005,128,128,128,126,129,127,128,127,0
5009,126,128,127,128,128,127,128,128,0
5013,128,128,128,126,128,127,125,127,0
5016,129,127,126,129,128,128,123,127,0
5019,131,127,127,130,126,125,128,127,0
5022,129,127,128,125,127,130,128,128,0
5026,128,128,128,125,128,128,129,128,0
5029,129,126,126,125,128,128,128,128,0
5032,127,127,127,127,128,128,128,128,0
5034,127,127,129,129,129,128,128,128,0
5038,126,128,127,127,128,127,127,127,0
5042,126,128,129,126,128,127,130,128,0
5048,127,127,128,128,130,128,129,129,0
5052,127,128,128,129,126,128,127,128,0
5055,128,128,128,129,126,127,126,127,0
5058,130,128,127,131,128,128,122,126,0
5062,129,127,126,131,129,128,126,126,0
5067,127,129,128,126,131,128,129,128,0
5071,127,128,127,128,130,128,130,128,0
5077,127,128,128,127,131,127,129,128,0
5080,127,128,127,128,132,128,130,128,0
5084,128,128,128,126,127,129,128,128,0
5088,127,128,126,126,127,128,128,128,0
5092,127,127,129,126,126,126,128,129,0
5095,126,127,129,131,128,129,123,126,0
5098,129,127,129,126,128,128,128,128,0
5102,127,128,127,126,129,128,130,128,0
5106,126,128,127,128,128,127,129,128,0
5109,127,127,127,127,128,128,129,128,0
5113,127,128,127,126,126,128,127,128,0
5116,127,128,128,126,128,129,128,128,0
5119,126,127,128,131,128,128,123,126,0
5122,130,127,127,130,127,127,123,126,0
5126,126,127,130,126,127,127,128,127,0
5129,128,128,128,125,127,127,128,128,0
5132,127,128,127,128,128,126,129,128,0
5135,127,128,130,127,128,126,129,127,0
5138,128,128,127,126,128,127,128,128,0
5141,127,128,127,129,128,126,128,127,0
5144,128,128,129,128,124,125,124,126,0
5147,129,126,128,130,126,125,125,127,0
5150,129,127,127,130,125,129,128,127,0
5154,128,129,128,126,127,128,128,128,0
5156,127,128,128,126,127,128,128,128,0
5161,127,128,128,126,126,127,129,127,0
5164,128,128,128,127,128,128,129,127,0
5167,128,128,127,128,129,129,129,128,0
5176,127,128,127,129,128,127,128,127,0
5183,127,128,128,133,128,129,124,126,0
5188,128,127,126,130,121,129,129,129,0
5191,127,128,127,129,129,129,128,128,0
5194,126,127,127,127,129,128,130,128,0
5198,126,127,126,127,128,129,128,128,0
5201,128,127,128,128,127,129,128,128,0
5204,128,128,127,127,128,129,129,128,0
5209,127,127,127,126,128,128,129,128,0
5211,127,126,129,130,127,128,122,126,0
5214,130,126,127,130,126,126,129,128,0
5217,127,128,128,126,128,128,129,128,0
5221,127,128,127,126,128,127,127,128,0
5224,127,128,127,128,124,124,129,127,0
5228,128,127,127,127,124,126,128,127,0
5233,128,128,128,129,128,126,128,128,0
5236,128,128,127,128,127,127,129,129,0
5240,126,127,128,127,127,128,128,127,0
5243,129,127,128,133,128,129,123,126,0
5246,129,127,130,128,129,130,129,128,0
5249,126,128,127,127,129,129,129,128,0
5254,128,127,128,125,125,127,124,126,0
5257,129,127,128,129,126,127,125,125,0
5260,129,128,128,126,130,128,129,128,0
5264,127,128,127,126,130,127,129,128,0
5268,127,126,127,125,127,125,128,128,0
5272,127,128,127,128,129,128,128,128,0
5274,128,128,127,129,128,128,128,128,0
5277,127,128,127,128,128,127,127,127,0
5281,130,127,129,131,128,129,123,126,0
5286,130,126,127,129,127,128,124,127,0
5290,127,128,127,125,129,132,131,128,0
5296,126,128,126,127,129,128,129,128,0
5302,126,129,126,127,129,127,129,128,0
5305,126,128,127,124,128,127,129,127,0
5308,127,128,126,128,128,128,128,128,0
5311,128,128,127,127,127,126,127,128,0
5313,127,127,128,128,125,126,125,127,0
5317,129,127,128,131,128,128,123,127,0
5320,128,127,127,127,131,130,130,128,0
5323,127,128,127,128,128,128,129,128,0
5327,127,129,127,126,127,127,129,128,0
5331,127,127,128,124,127,128,128,128,0
5334,127,127,126,128,127,128,128,128,0
5338,128,128,128,126,129,129,129,127,0
5341,127,128,129,128,128,127,128,128,0
5344,129,127,127,131,129,129,123,126,0
5347,130,127,128,128,130,129,128,128,0
5350,127,128,127,127,129,128,129,128,0
5354,127,128,127,127,129,128,128,127,0
5356,127,127,128,125,129,128,128,127,0
5360,128,128,127,126,129,128,128,128,0
5363,128,129,127,128,128,128,129,128,0
5367,126,128,128,126,123,126,123,126,0
5370,129,127,127,130,127,128,124,126,0
5373,127,126,129,127,127,128,129,127,0
5377,127,128,130,127,126,129,129,128,0
5380,127,128,127,127,128,127,129,128,0
5383,126,127,129,127,127,127,130,127,0
5386,127,128,126,128,127,126,128,128,0
5389,127,128,127,128,127,127,129,128,0
5393,128,128,127,128,127,127,128,129,0
5399,128,127,129,127,125,126,123,126,0
5403,130,127,128,131,126,125,128,129,0
5408,129,128,128,126,128,128,129,129,0
5411,127,128,128,128,128,126,126,128,0
5414,129,128,128,128,125,127,128,128,0
5417,128,127,128,126,129,128,128,128,0
5420,127,128,128,129,128,129,128,128,0
5423,128,127,128,128,126,124,128,127,0
5427,128,126,128,130,128,128,123,126,0
5431,128,126,128,132,127,127,129,128,0
5434,127,128,126,127,129,130,129,128,0
5438,126,128,128,124,128,129,129,128,0
5442,127,127,128,127,124,126,128,128,0
5446,127,127,127,126,129,127,128,128,0
5449,128,128,126,128,127,127,128,128,0
5452,127,128,127,126,127,127,127,127,0
5455,128,127,128,130,127,128,122,125,0
5460,131,126,127,131,127,128,122,125,0
5463,126,128,127,127,128,129,129,128,0
5467,126,128,127,127,128,128,129,128,0
5470,126,127,128,126,130,127,129,128,0
5476,128,127,127,127,129,129,129,127,0
5480,127,127,128,128,128,127,128,128,0
5483,127,128,127,126,128,126,129,128,0
5487,126,127,128,127,126,123,129,127,0
5490,127,126,127,131,128,128,123,127,0
5494,127,128,127,127,128,128,129,128,0
5498,127,128,128,126,130,129,129,128,0
5502,127,128,128,126,130,127,129,127,0
5506,131,127,127,130,130,129,124,127,0
5511,127,127,130,125,128,130,128,128,0
5515,128,129,127,127,129,128,129,128,0
5519,127,128,127,125,127,126,128,128,0
5522,127,129,127,128,128,127,129,127,0
5525,128,128,127,127,128,129,127,128,0
5528,128,128,126,128,128,128,127,128,0
5532,127,127,128,125,128,127,127,128,0
5535,128,126,128,130,125,127,123,127,0
5539,129,126,127,129,127,128,128,128,0
5543,127,127,127,129,126,128,128,128,0
5546,127,128,127,128,124,125,126,128,0
5550,127,126,127,131,128,128,122,126,0
5552,130,128,128,126,129,128,128,128,0
5555,128,128,126,127,129,128,128,128,0
5558,127,128,127,126,127,126,128,127,0
5561,126,128,127,127,130,127,129,128,0
5564,128,128,127,127,129,127,128,128,0
5567,128,128,129,127,127,127,129,128,0
5571,128,127,129,126,128,126,128,127,0
5576,130,126,129,132,128,128,123,126,0
5579,129,127,128,129,125,128,129,128,0
5582,128,129,128,126,130,129,129,129,0
5585,127,128,127,125,127,129,130,129,0
5589,127,127,128,125,126,128,129,128,0
5592,128,128,127,127,127,129,128,127,0
5595,129,128,128,127,127,126,129,128,0
5598,126,128,127,126,127,126,128,127,0
5601,130,127,128,130,129,129,123,125,0
5604,129,127,127,128,127,129,129,128,0
5608,128,128,126,128,128,128,127,128,0
5611,126,128,127,128,129,128,128,129,0
5614,126,127,127,127,126,128,128,128,0
5618,127,128,127,128,128,128,129,128,0
5622,128,128,126,128,127,129,129,128,0
5626,128,129,127,126,128,127,128,127,0
5629,126,127,127,128,123,127,128,127,0
5632,129,127,127,128,128,128,127,127,0
5635,127,128,128,129,128,128,128,127,0
5638,128,127,127,127,125,126,127,127,0
5641,130,126,127,130,126,128,122,125,0
5644,130,127,127,129,125,124,129,128,0
5648,127,127,127,127,129,128,128,128,0
5651,128,128,128,125,128,127,129,128,0
5654,128,127,127,126,127,125,129,127,0
5657,129,127,128,127,127,128,128,127,0
5660,128,128,127,128,128,128,128,128,0
5663,127,128,128,127,126,128,127,127,0
5666,128,126,129,129,128,127,123,126,0
5668,129,126,128,129,126,128,129,128,0
5671,127,128,129,126,128,128,128,128,0
5674,128,129,128,126,127,127,129,128,0
5678,126,128,129,126,128,126,130,128,0
5681,127,129,129,127,128,127,128,128,0
5684,127,129,129,128,129,128,129,128,0
5688,127,129,127,127,126,127,127,127,0
5691,127,128,129,127,128,127,130,128,0
5694,127,127,128,125,128,129,129,128,0
5697,126,129,127,128,129,129,128,129,0
5701,126,127,127,128,127,124,128,128,0
5706,128,126,126,131,128,128,123,126,0
5709,130,128,127,132,128,127,124,127,0
5714,126,127,128,128,129,128,127,128,0
5717,127,128,127,128,127,127,129,128,0
5722,127,127,127,127,126,126,129,128,0
5727,127,127,128,127,128,127,128,127,0
5731,127,128,128,127,127,128,128,128,0
5734,127,128,128,127,127,128,127,128,0
5738,127,127,127,127,123,125,122,126,0
5742,130,126,128,131,129,128,123,126,0
5744,128,128,128,127,128,129,129,128,0
5748,127,128,127,125,128,128,130,128,0
5751,126,128,127,124,126,126,130,129,0
5753,126,128,128,125,128,127,129,128,0
5757,127,128,127,127,127,129,128,128,0
5760,127,128,128,127,126,128,128,128,0
5765,128,127,128,127,124,124,128,128,0
5768,127,128,127,130,127,128,122,125,0
5771,131,126,128,128,127,128,128,127,0
5774,127,128,126,127,127,129,128,128,0
5779,126,128,127,127,128,127,127,128,0
5782,127,126,127,130,128,127,122,126,0
5786,128,127,128,127,127,127,127,128,0
5788,128,128,126,127,127,127,128,128,0
5792,126,128,127,129,128,127,129,128,0
5796,126,127,128,128,127,127,127,128,0
5798,128,128,128,127,128,129,128,127,0
5802,128,128,128,127,130,128,129,127,0
5805,128,129,128,125,129,127,130,126,0
5808,130,127,128,132,129,128,123,126,0
5811,130,127,129,127,128,129,129,127,0
5814,127,129,127,128,130,129,129,128,0
5818,127,128,127,127,130,128,129,127,0
5821,126,128,129,127,129,128,129,127,0
5825,126,126,127,127,128,130,128,127,0
5831,127,127,127,128,128,129,129,128,0
5836,127,128,127,127,127,125,125,127,0
5841,128,126,127,128,125,126,127,127,0
5846,128,127,127,128,127,126,131,128,0
5849,127,128,127,126,129,127,130,128,0
5854,127,128,127,125,129,127,129,128,0
5857,126,128,127,126,127,127,129,128,0
5860,127,128,127,126,128,128,129,128,0
5863,128,129,127,129,127,127,129,128,0
5866,127,127,127,129,127,128,129,128,0
5870,127,127,128,126,125,127,128,128,0
5873,127,126,127,132,126,129,122,127,0
5875,129,125,129,126,128,128,128,128,0
5878,128,128,127,128,129,127,128,129,0
5881,127,128,129,127,128,126,128,127,0
5884,127,128,128,125,129,129,129,128,0
5889,127,128,127,126,128,129,126,128,0
5892,128,128,128,126,127,125,126,127,0
5897,127,128,128,127,128,127,122,125,0
5900,129,127,127,131,128,128,122,127,0
5905,128,128,129,125,129,127,128,128,0
5908,127,129,127,126,129,127,128,127,0
5911,126,127,130,127,128,127,129,128,0
5914,126,127,127,126,127,128,129,128,0
5919,128,128,128,128,127,128,129,128,0
5923,128,128,128,128,127,128,128,127,0
5926,127,127,128,128,127,125,129,127,0
5929,127,127,128,129,128,128,128,128,0
5933,126,128,126,129,128,129,128,128,0
5936,127,128,127,127,126,126,127,127,0
5940,127,126,128,131,128,128,124,126,0
5946,130,126,127,130,129,128,123,127,0
5950,128,127,126,127,130,130,129,128,0
5955,127,128,126,126,129,128,129,128,0
5959,127,128,127,125,128,127,129,128,0
5962,129,128,127,127,127,127,128,128,0
5966,128,127,127,127,128,129,128,128,0
5969,127,128,127,126,129,128,129,127,0
5972,127,128,126,128,127,124,128,127,0
5975,127,127,127,126,127,127,129,128,0
5979,127,128,127,127,128,128,127,129,0
5982,128,128,126,128,128,127,128,128,0
5986,127,127,127,130,128,127,123,126,0
5989,129,126,127,130,129,128,123,125,0
5993,129,127,128,127,128,128,128,128,0
5996,128,128,128,127,128,129,129,128,0
6000,127,128,129,125,129,128,130,129,0
6003,126,128,128,125,127,128,129,129,0
6006,127,128,127,127,129,127,128,128,0
6009,128,128,128,127,129,127,129,129,0
6012,127,128,128,125,127,124,129,128,0
6016,126,127,129,129,127,128,123,126,0
6019,129,126,128,130,125,127,129,128,0
6021,127,128,128,126,128,129,128,127,0
6024,127,128,128,128,128,129,128,128,0
6028,126,127,127,128,127,127,129,128,0
6031,127,127,127,128,129,128,128,128,0
6034,128,128,128,128,127,128,128,128,0
6037,128,128,128,128,128,128,128,127,0
6040,129,127,127,131,127,126,124,126,0
6048,127,128,127,128,129,128,129,128,0
6043,130,127,128,130,124,129,128,127,0
6053,127,128,127,129,129,127,130,127,0
6057,127,127,127,126,126,126,129,128,0
6061,128,127,128,128,129,128,129,128,0
6064,127,128,127,129,128,127,128,128,0
6068,127,128,127,128,127,125,127,128,0
6070,127,125,127,129,126,127,122,126,0
6073,131,126,127,130,124,125,129,128,0
6077,127,128,126,127,131,129,129,128,0
6081,126,128,127,126,128,127,129,128,0
6084,126,128,129,124,126,124,129,128,0
6087,127,128,127,126,128,128,128,127,0
6093,127,129,127,129,128,128,128,128,0
6096,126,128,127,129,128,126,127,127,0
6099,127,128,129,127,128,127,125,126,0
6103,131,127,128,132,126,128,123,127,0
6106,127,128,128,128,126,129,128,128,0
6110,127,129,127,127,126,128,129,128,0
6113,127,128,127,124,126,125,129,127,0
6116,127,128,128,127,127,127,128,128,0
6119,128,128,127,127,127,128,128,128,0
6122,127,128,127,127,128,127,129,127,0
6124,126,126,128,131,128,128,123,126,0
6127,130,127,127,130,129,129,124,127,0
6130,126,128,127,127,129,131,127,128,0
6133,128,128,127,124,129,129,127,128,0
6136,127,128,129,127,130,128,128,128,0
6140,127,128,128,124,129,127,128,128,0
6143,127,128,128,125,127,128,129,128,0
6146,127,128,128,127,127,126,129,128,0
6150,127,128,128,127,126,125,129,128,0
6155,126,126,127,131,128,127,123,126,0
6159,128,126,128,126,127,129,129,128,0
6163,127,128,126,127,127,128,129,128,0
6166,128,128,127,126,129,126,130,128,0
6169,127,127,127,126,129,126,129,128,0
6172,127,128,127,129,127,128,129,128,0
6175,127,128,128,129,129,129,129,128,0
6179,126,127,128,127,124,126,122,126,0
6182,129,126,127,132,127,127,123,126,0
6186,131,127,127,126,128,129,128,128,0
6190,128,128,128,127,126,127,128,128,0
6193,127,128,127,128,128,128,129,128,0
6197,126,127,127,127,129,128,129,128,0
6200,127,127,127,128,128,129,129,127,0
6204,127,128,128,126,128,129,128,128,0
6207,127,127,128,128,126,125,129,128,0
6210,128,127,128,128,127,128,129,128,0
6213,127,127,129,128,127,127,128,128,0
6216,128,127,128,128,129,127,128,127,0
6220,127,127,129,128,123,124,122,126,0
6223,131,127,128,131,127,127,124,126,0
6227,131,127,128,129,123,128,128,128,0
6230,128,128,127,125,126,128,129,128,0
6233,128,129,128,126,128,127,129,127,0
6236,127,128,128,126,128,127,128,128,0
6239,127,127,128,127,128,126,127,128,0
6242,128,128,129,128,129,128,128,128,0
6245,127,129,127,125,128,127,128,128,0
6250,126,127,127,125,128,127,129,127,0
6253,127,128,127,127,127,127,128,128,0
6258,127,128,126,128,126,128,128,128,0
6263,128,128,127,128,127,127,127,128,0
6266,127,127,127,130,127,128,122,126,0
6269,130,126,127,131,126,128,125,128,0
6274,127,128,126,127,128,128,128,128,0
6276,127,129,127,128,129,129,129,128,0
6279,126,128,127,127,127,128,128,128,0
6282,126,127,126,126,128,128,128,127,0
6285,128,128,126,128,127,127,128,128,0
6288,127,128,126,127,127,127,128,129,0
6291,127,127,127,126,123,124,126,127,0
6295,131,126,128,130,126,128,122,126,0
6299,127,128,128,128,129,129,128,129,0
6303,127,128,126,126,129,128,129,128,0
6306,126,127,127,127,123,124,129,128,0
6310,127,128,128,127,124,128,128,128,0
6313,127,128,128,128,127,128,128,128,0
6315,128,127,128,128,128,129,128,128,0
6318,127,127,129,130,127,128,123,126,0
6321,129,127,128,130,127,128,128,129,0
6325,127,128,128,125,128,128,129,128,0
6329,128,129,130,126,128,127,128,127,0
6335,127,127,128,126,125,127,129,128,0
6338,127,128,128,125,127,129,129,128,0
6342,127,129,129,127,128,129,128,128,0
6349,127,127,128,126,126,125,124,126,0
6345,128,128,129,126,128,127,129,128,0
6353,130,126,128,131,128,128,124,127,0
6357,128,127,128,125,129,129,129,128,0
6361,127,128,129,127,129,128,129,128,0
6365,127,127,128,125,128,127,129,128,0
6372,127,127,128,127,127,127,127,127,0
6377,127,127,128,128,128,128,127,127,0
6381,127,128,128,128,128,128,127,127,0
6387,127,127,128,127,128,126,129,127,0
6391,127,126,128,131,128,128,124,126,0
6394,130,128,127,129,127,129,128,127,0
6398,126,128,127,127,128,129,128,128,0
6401,127,127,127,125,129,127,128,128,0
6405,127,127,127,125,128,128,130,128,0
6408,126,127,127,129,128,127,127,128,0
6412,127,128,126,128,129,128,128,128,0
6415,127,127,127,129,125,126,122,126,0
6418,129,127,126,131,127,127,122,126,0
6422,129,127,126,126,128,128,128,127,0
6425,128,128,127,126,128,128,129,128,0
6428,126,128,127,124,129,127,130,129,0
6431,126,127,127,126,126,127,129,128,0
6433,128,128,127,127,127,129,129,128,0
6436,128,128,127,128,127,128,128,128,0
6439,126,127,126,126,125,126,127,127,0
6442,127,125,128,130,127,127,123,126,0
6446,130,127,128,126,128,130,129,128,0
6450,128,128,128,125,129,129,130,127,0
6453,128,128,128,128,128,127,129,127,0
6458,127,127,127,129,127,127,127,127,0
6461,129,127,129,129,126,127,129,128,0
6464,128,129,128,128,129,129,129,128,0
6467,127,128,127,127,130,128,130,129,0
6469,126,128,128,126,132,129,128,128,0
6473,126,128,128,125,129,128,128,128,0
6477,127,128,128,126,129,128,127,128,0
6481,127,128,128,125,128,126,129,128,0
6486,126,126,129,130,128,128,123,126,0
6489,130,126,129,130,125,126,129,127,0
6492,128,128,127,125,127,129,128,127,0
6496,126,129,126,127,126,128,128,128,0
6499,127,127,127,127,124,127,128,127,0
6501,127,127,130,128,127,128,128,128,0
6504,128,128,126,126,127,128,129,128,0
6507,127,128,126,128,127,127,127,127,0
6511,127,128,127,127,127,127,128,128,0
6515,127,127,126,128,126,127,128,127,0
6519,127,128,127,128,127,128,128,128,0
6522,130,128,127,128,124,126,127,126,0
6526,129,126,127,131,127,129,123,127,0
6529,129,126,127,131,127,129,125,127,0
6533,128,128,127,126,128,129,128,128,0
6537,128,129,127,127,126,128,128,128,0
6540,127,128,128,126,127,127,130,128,0
6542,127,127,127,127,129,128,128,128,0
6545,128,128,130,126,129,129,128,127,0
6549,128,129,127,128,128,127,128,128,0
6552,128,127,128,127,128,127,128,128,0
6555,125,126,129,126,127,127,128,128,0
6560,126,127,128,126,128,129,128,128,0
6563,126,128,127,126,128,128,128,128,0
6567,127,127,127,130,126,127,122,126,0
6570,129,127,129,130,127,128,124,126,0
6572,126,128,128,125,131,129,130,128,0
6575,127,128,129,127,131,129,129,128,0
6579,127,128,127,127,129,127,129,129,0
6583,127,127,129,124,129,128,130,129,0
6589,127,128,127,128,128,128,128,128,0
6592,127,128,127,128,129,128,128,128,0
6596,126,127,127,125,129,128,127,128,0
6599,127,127,130,130,127,127,124,127,0
6602,128,127,127,128,129,128,129,128,0
6606,127,128,128,129,127,127,128,128,0
6610,127,128,129,126,126,125,128,127,0
6613,127,128,127,127,125,127,123,127,0
6617,129,126,127,130,125,126,128,127,0
6620,128,128,129,126,128,128,128,128,0
6623,127,127,126,127,130,127,128,128,0
6625,126,127,127,128,128,127,128,128,0
6629,128,127,127,127,127,127,128,128,0
6632,128,128,128,128,128,127,127,127,0
6635,127,128,128,127,126,126,128,128,0
6638,127,127,126,130,127,126,122,126,0
6641,129,127,128,131,125,125,128,128,0
6646,128,128,128,128,128,128,129,128,0
6649,127,128,126,127,130,127,129,128,0
6652,127,128,127,125,127,126,129,128,0
6655,128,127,128,126,127,128,128,127,0
6658,127,128,129,128,127,127,128,128,0
6661,127,128,128,128,127,126,127,128,0
6665,128,126,129,131,128,128,123,126,0
6668,130,126,128,129,126,128,128,128,0
6671,127,128,127,128,127,128,129,128,0
6674,128,128,129,127,127,127,129,128,0
6676,127,127,130,127,129,127,129,128,0
6680,125,128,128,128,127,129,129,128,0
6683,128,127,127,127,127,129,128,127,0
6692,127,127,128,127,125,127,127,127,0
6697,128,126,128,131,127,127,123,126,0
6700,128,126,127,129,124,126,129,128,0
6704,128,128,128,125,126,129,129,128,0
6708,127,128,127,125,127,128,128,128,0
6711,126,127,128,129,126,126,125,127,0
6713,128,127,128,130,126,126,131,128,0
6717,128,128,127,128,129,131,129,128,0
6720,128,128,127,128,128,129,129,128,0
6723,127,128,127,126,127,127,130,128,0
6726,127,128,129,129,127,129,129,128,0
6730,127,128,126,128,126,128,129,127,0
6733,127,127,127,126,128,127,129,128,0
6738,126,128,127,127,127,124,122,126,0
6742,129,126,127,131,127,127,124,127,0
6746,129,128,126,127,128,129,128,128,0
6749,129,128,128,127,126,127,129,128,0
6753,127,128,127,125,128,127,130,128,0
6756,127,128,127,126,127,127,126,128,0
6759,126,128,127,128,128,129,128,127,0
6763,128,128,127,125,128,128,128,128,0
6766,126,128,128,125,127,126,127,127,0
6769,126,127,128,131,128,129,122,126,0
6772,129,126,128,126,129,129,128,128,0
6776,127,128,128,126,127,128,129,128,0
6780,128,128,129,127,128,126,129,128,0
6783,127,127,128,128,128,125,124,126,0
6787,128,125,129,128,128,129,128,128,0
6790,127,128,127,129,129,128,128,128,0
6793,127,127,127,126,121,126,121,125,0
6798,129,126,128,132,127,127,123,127,0
6802,129,127,128,127,128,128,128,128,0
6805,129,128,127,128,127,127,128,128,0
6809,128,128,128,127,129,127,129,128,0
6814,127,128,128,125,127,128,129,128,0
6818,127,128,127,126,128,127,128,128,0
6822,127,127,127,127,129,128,129,128,0
6825,127,128,127,124,126,125,129,128,0
6828,127,127,127,129,126,126,126,127,0
6831,129,127,128,129,126,126,128,128,0
6836,128,129,128,127,129,129,128,128,0
6839,127,128,128,125,128,128,128,128,0
6842,127,127,131,129,125,127,124,127,0
6849,127,128,127,128,129,129,127,128,0
6846,129,127,128,129,123,130,128,129,0
6852,128,129,127,126,129,129,129,128,0
6856,126,128,127,127,123,128,128,128,0
6859,127,128,128,128,129,129,128,128,0
6862,127,128,126,129,128,129,128,128,0
6865,127,129,126,127,129,128,126,128,0
6868,127,126,128,130,127,128,122,125,0
6871,130,126,127,128,124,128,129,127,0
6874,127,128,127,127,129,129,129,127,0
6877,128,128,127,126,128,127,129,127,0
6881,126,127,127,124,125,128,128,128,0
6885,127,128,127,125,126,127,128,127,0
6888,128,128,126,125,127,127,128,127,0
6891,128,127,126,128,127,127,124,126,0
6894,129,126,127,131,127,127,123,126,0
6897,131,127,127,129,123,130,130,128,0
6900,128,128,127,125,128,128,128,128,0
6904,126,129,130,128,128,127,129,128,0
6908,126,128,128,128,127,127,129,128,0
6911,127,127,129,127,128,129,127,128,0
6916,127,129,128,130,128,127,128,127,0
6922,128,129,128,127,127,129,128,128,0
6926,127,128,128,127,127,127,127,127,0
6929,127,127,128,128,127,129,128,128,0
6934,129,128,128,129,128,127,126,128,0
6937,128,128,128,128,126,126,124,126,0
6940,130,126,129,130,128,128,124,126,0
6943,130,127,128,130,129,127,126,127,0
6946,127,126,128,127,129,129,130,128,0
6950,127,126,129,125,129,129,129,128,0
6952,127,127,129,127,126,126,127,128,0
6957,127,127,127,126,127,128,128,127,0
6964,128,128,128,128,128,127,128,128,0
6967,126,127,127,128,126,128,128,128,0
6972,127,127,128,126,127,124,123,126,0
6977,130,126,128,132,127,127,124,127,0
6983,126,128,127,128,126,129,129,128,0
6986,127,129,129,125,127,127,129,128,0
6991,128,128,127,124,126,126,129,128,0
6995,127,128,128,126,125,126,129,127,0
7003,128,129,127,128,125,127,128,128,0
7007,127,129,127,127,127,128,128,128,0
7010,127,128,130,130,127,128,123,126,0
7014,130,127,127,131,128,129,123,126,0
7018,128,128,127,126,127,129,129,128,0
7022,127,129,126,127,126,129,129,128,0
7027,126,128,127,127,129,128,130,128,0
7031,126,128,127,125,127,128,131,128,0
7035,127,128,127,126,127,127,129,128,0
7039,128,128,128,129,126,128,129,128,0
7042,127,128,127,128,123,126,127,128,0
7047,127,128,129,127,127,128,126,128,0
7052,128,128,128,129,129,128,128,127,0
7056,128,128,127,128,128,127,128,128,0
7058,127,126,128,130,128,126,122,126,0
7061,130,126,127,130,128,127,123,127,0
7064,130,128,127,130,125,128,128,128,0
7067,128,128,128,125,132,128,130,128,0
7070,128,128,126,128,130,126,128,128,0
7074,128,128,129,128,127,125,128,127,0
7077,127,128,129,126,127,127,128,128,0
7080,128,128,126,127,127,128,128,127,0
7083,127,128,127,128,126,127,126,128,0
7086,127,128,127,125,127,127,126,128,0
7089,127,127,127,126,128,130,128,127,0
7092,128,128,127,126,128,129,128,127,0
7094,128,127,128,126,121,126,121,126,0
7098,131,126,128,130,128,128,122,126,0
7102,131,127,127,127,129,130,128,129,0
7105,127,128,127,125,131,131,130,128,0
7108,127,128,129,127,126,128,129,128,0
7111,129,127,128,127,125,127,129,127,0
7114,126,128,130,128,127,127,128,128,0
7118,128,128,127,126,128,128,129,128,0
7121,128,128,127,125,128,127,129,128,0
7125,126,126,128,129,127,127,123,126,0
7129,130,127,127,129,124,125,130,128,0
7132,127,127,129,126,128,128,130,128,0
7136,127,128,127,125,127,127,129,128,0
7139,127,127,127,125,128,127,129,128,0
7143,126,127,129,126,127,127,128,128,0
7146,127,128,127,127,126,128,128,128,0
7149,127,127,127,127,127,127,127,128,0
7155,126,127,127,126,126,123,127,126,0
7162,129,126,127,131,127,128,123,127,0
7167,126,128,127,129,131,128,129,128,0
7170,127,128,126,127,128,127,129,128,0
7173,127,127,127,126,128,127,129,129,0
7176,126,127,127,126,127,128,129,128,0
7179,127,128,128,128,126,129,128,128,0
7182,127,128,126,127,127,127,128,127,0
7185,127,127,128,128,124,128,121,125,0
7188,131,127,128,130,126,128,123,126,0
7191,128,127,127,127,127,129,128,128,0
7193,127,129,127,125,127,128,129,128,0
7196,127,128,128,126,127,128,129,128,0
7199,126,127,127,126,128,129,128,128,0
7201,127,127,128,127,129,128,128,128,0
7204,127,127,127,128,129,127,128,128,0
7207,126,127,128,126,127,125,129,128,0
7210,127,127,128,128,127,127,128,128,0
7213,128,128,128,128,128,129,128,127,0
7216,127,128,127,128,124,127,127,127,0
7219,127,127,128,128,128,126,123,125,0
7222,130,127,127,131,128,128,123,126,0
7225,130,128,127,128,131,128,130,127,0
7228,127,128,127,127,128,128,129,128,0
7231,127,128,128,126,128,128,130,127,0
7234,127,128,127,125,126,127,129,129,0
7238,128,128,127,128,128,128,128,128,0
7242,127,128,128,129,128,128,128,128,0
7245,127,128,128,128,129,125,127,126,0
7248,130,127,128,131,128,128,123,126,0
7253,130,127,127,128,128,128,129,128,0
7257,128,128,127,128,127,128,129,128,0
7262,126,128,127,127,129,128,129,128,0
7268,127,127,126,126,129,128,129,128,0
7271,126,128,126,126,127,128,128,128,0
7274,127,128,128,127,128,129,128,127,0
7277,126,129,127,127,128,127,127,127,0
7281,126,127,127,127,125,126,121,126,0
7284,130,127,128,130,125,126,127,128,0
7287,128,128,128,127,128,127,128,128,0
7292,128,128,127,125,128,127,129,128,0
7295,128,127,128,127,127,124,128,128,0
7298,127,128,127,126,128,127,128,128,0
7302,127,128,126,126,127,129,128,128,0
7307,127,128,128,126,123,127,128,127,0
7310,127,127,127,129,127,128,123,126,0
7314,131,126,128,130,127,125,128,127,0
7317,129,128,128,127,129,128,128,128,0
7320,128,128,129,128,130,128,129,128,0
7324,127,128,127,127,130,126,129,128,0
7328,126,128,127,128,128,128,130,128,0
7330,128,127,128,128,127,128,130,128,0
7333,127,128,127,126,127,128,129,128,0
7336,128,125,127,129,128,127,123,127,0
7339,130,127,127,130,125,125,129,128,0
7344,128,128,127,125,128,128,129,128,0
7348,126,128,127,126,131,127,128,129,0
7352,126,128,128,125,129,128,132,128,0
7356,126,128,130,129,131,127,128,127,0
7361,128,128,127,127,127,128,128,128,0
7364,128,128,128,127,127,127,128,127,0
7368,127,127,128,126,125,125,126,126,0
7373,131,127,128,131,127,128,123,125,0
7377,127,127,127,129,128,129,129,128,0
7381,127,128,127,127,127,130,129,128,0
7384,126,127,128,125,128,128,129,128,0
7388,126,127,129,126,128,128,128,128,0
7391,128,127,127,128,126,128,128,127,0
7395,127,127,127,129,128,127,127,129,0
7398,127,127,129,128,127,127,128,128,0
7401,127,125,127,130,127,127,123,127,0
7403,130,127,127,127,127,128,129,129,0
7406,127,128,127,125,128,129,129,128,0
7409,126,127,128,126,128,127,129,128,0
7412,127,127,128,125,129,128,129,128,0
7415,126,127,127,126,128,128,128,128,0
7418,128,129,127,128,127,125,127,127,0
7421,127,126,128,130,128,127,123,126,0
7425,130,127,128,131,127,128,123,126,0
7429,126,128,127,128,127,129,129,128,0
7432,128,128,127,129,128,129,129,127,0
7435,126,127,129,128,131,127,130,128,0
7439,126,127,127,127,128,128,129,128,0
7442,127,128,127,126,127,129,127,127,0
7445,126,128,127,128,127,128,128,128,0
7448,127,128,127,126,128,126,126,127,0
7451,126,128,127,126,126,127,129,127,0
7461,126,127,127,127,129,127,127,128,0
7464,127,128,127,129,128,128,128,128,0
7468,127,128,128,126,126,126,127,127,0
7472,129,127,128,130,127,129,123,126,0
7476,129,127,127,129,126,129,128,128,0
7479,127,128,127,128,128,129,128,128,0
7484,127,128,127,124,128,128,128,127,0
7491,127,128,128,125,128,127,130,127,0
7494,127,128,128,127,127,126,127,128,0
7498,128,128,128,126,127,127,128,128,0
7502,127,128,127,126,127,126,126,127,0
7505,129,126,128,129,126,126,125,126,0
7508,129,127,128,129,126,126,128,128,0
7511,128,128,127,128,129,128,128,128,0
7514,127,128,126,125,130,127,130,127,0
7519,127,127,128,126,129,127,129,128,0
7522,126,128,127,126,126,128,128,128,0
7524,127,128,127,129,127,127,128,128,0
7527,127,128,128,127,124,127,127,127,0
7532,129,126,127,131,128,127,123,126,0
7535,130,127,127,130,126,125,129,127,0
7538,128,128,127,126,128,127,130,128,0
7541,127,128,127,126,128,127,130,127,0
7545,129,127,128,126,128,128,130,129,0
7549,127,127,128,126,126,129,129,128,0
7552,127,127,127,128,128,128,129,128,0
7555,128,127,127,126,127,127,128,128,0
7558,128,126,126,129,128,128,123,126,0
7561,130,126,128,129,126,127,125,126,0
7564,127,127,127,125,129,128,130,128,0
7569,127,128,126,125,129,128,129,128,0
7573,126,128,128,125,129,127,129,129,0
7577,127,129,128,127,127,127,128,129,0
7580,127,128,128,128,127,126,128,128,0
7582,127,128,127,128,127,127,128,128,0
7585,127,128,128,127,126,127,128,128,0
7590,127,127,127,130,127,126,124,127,0
7595,127,128,128,128,127,128,129,128,0
7600,127,129,127,128,128,128,129,127,0
7603,127,128,128,125,124,127,129,128,0
7607,127,126,128,125,128,128,128,128,0
7610,127,129,128,126,129,128,127,128,0
7613,128,129,127,126,128,126,127,128,0
7621,127,128,129,129,129,127,124,126,0
7626,130,126,127,130,129,129,124,126,0
7630,129,127,129,126,128,129,130,128,0
7634,127,128,127,128,128,128,129,128,0
7637,126,128,127,125,125,127,129,128,0
7641,127,128,127,126,126,127,127,128,0
7644,128,128,127,126,126,129,128,127,0
7647,127,128,126,126,127,128,129,128,0
7660,125,127,126,125,126,127,129,127,0
7664,129,126,128,130,126,126,124,127,0
7669,129,127,127,130,125,128,128,128,0
7672,127,128,128,128,128,128,129,128,0
7675,127,128,128,126,128,126,128,127,0
7679,126,128,127,129,127,127,125,126,0
7682,128,127,128,131,127,128,125,128,0
7685,127,129,127,126,129,128,129,128,0
7697,127,128,127,125,131,127,130,128,0
7701,124,127,128,126,132,125,129,128,0
7705,127,128,128,126,130,128,128,128,0
7708,128,128,128,128,129,128,128,128,0
7712,127,128,128,127,128,123,123,126,0
7715,129,126,127,132,128,128,124,126,0
7719,129,127,128,130,123,128,129,128,0
7727,127,128,127,128,127,129,129,128,0
7730,127,128,127,127,128,127,130,127,0
7734,127,126,128,128,130,128,131,128,0
7737,128,128,127,127,128,129,129,127,0
7740,127,128,127,126,128,128,128,128,0
7743,126,128,128,128,126,127,127,128,0
7747,127,127,128,127,123,127,128,127,0
7751,128,126,127,128,127,129,128,127,0
7754,128,128,128,128,128,128,127,127,0
7757,128,127,128,128,126,126,124,125,0
7760,130,126,128,130,128,126,123,126,0
7763,131,127,127,130,126,124,128,128,0
7766,129,129,127,126,131,129,130,128,0
7769,126,127,129,125,127,126,129,128,0
7783,126,126,129,125,127,127,130,128,0
7787,127,127,127,126,129,128,128,128,0
7792,128,128,127,129,128,127,128,128,0
7796,126,128,126,127,127,127,128,128,0
7800,127,126,127,126,127,126,128,128,0
7804,126,127,128,128,125,127,128,128,0
7808,127,127,128,129,128,128,128,128,0
7811,125,127,127,126,128,127,124,126,0
7814,129,127,126,130,127,127,122,125,0
7818,131,127,126,131,128,128,124,127,0
7821,127,127,128,128,131,129,130,127,0
7824,126,128,128,126,128,128,131,128,0
7828,126,128,126,125,127,127,130,129,0
7831,129,129,127,126,129,128,128,128,0
7834,127,128,127,127,127,128,128,128,0
7841,127,129,127,127,127,127,127,127,0
7845,127,127,130,126,127,126,129,127,0
7848,127,127,128,127,129,128,127,128,0
7851,127,128,127,129,128,129,127,129,0
7854,128,128,127,129,128,127,127,127,0
7858,126,128,128,127,126,127,126,126,0
7861,129,127,128,131,128,128,122,125,0
7865,129,127,127,129,128,130,128,128,0
7870,128,129,128,129,128,129,129,128,0
7874,127,128,127,127,129,124,130,128,0
7877,128,127,130,128,129,128,129,127,0
7880,127,128,126,129,128,127,128,128,0
7888,128,128,129,128,127,128,129,128,0
7891,126,127,127,126,128,128,124,125,0
7894,129,126,127,131,128,127,122,126,0
7900,128,127,128,129,130,130,129,128,0
7905,127,128,127,126,127,128,128,128,0
7966,127,128,128,125,128,127,128,129,0
7975,127,127,128,127,128,127,128,128,0
7984,128,127,128,128,126,128,128,127,0
7990,128,128,128,127,126,128,128,127,0
7996,127,127,128,125,127,126,129,127,0
8003,129,126,128,129,127,127,124,126,0
8035,129,126,129,127,129,128,129,128,0
8044,127,128,128,126,128,127,128,128,0
8052,126,128,128,126,129,126,128,128,0
8059,127,128,130,125,128,126,129,128,0
8066,127,128,127,128,128,127,128,128,0
8075,126,128,128,128,128,128,128,128,0
8082,127,127,128,129,125,125,125,127,0
8087,128,127,127,131,127,127,124,127,0
8100,129,127,127,130,124,129,130,128,0
8105,128,128,127,126,129,129,129,128,0
8111,127,128,127,127,128,127,128,127,0
8116,128,127,128,127,127,128,128,128,0
8121,127,128,127,126,128,127,128,128,0
8175,128,128,127,128,129,128,128,128,0
8187,127,127,128,127,127,126,129,128,0
8196,127,126,128,127,127,126,126,126,0
8243,130,127,127,131,128,129,121,126,0
8252,128,128,127,126,129,127,129,128,0
8260,126,128,127,126,128,127,129,128,0
8266,126,127,129,125,128,127,129,128,0
8272,127,128,127,128,128,128,128,128,0
8277,127,128,127,129,128,128,127,128,0
8281,127,128,128,128,126,126,127,128,0
8284,126,127,127,128,126,126,127,127,0
8288,129,127,126,130,128,129,123,126,0
8292,130,126,130,126,128,128,129,128,0
8295,126,128,127,126,128,127,130,128,0
8298,127,128,127,127,129,126,128,127,0
8302,127,128,128,126,128,128,128,127,0
8305,127,128,128,127,127,128,128,128,0
8308,127,128,126,127,129,127,129,127,0
8312,126,128,127,126,124,128,129,128,0
8316,127,127,127,127,127,127,128,128,0
8321,128,128,127,128,127,127,127,128,0
8326,127,127,128,129,128,126,128,127,0
8330,128,125,126,131,128,128,123,126,0
8333,130,126,127,130,128,129,123,126,0
8336,127,128,128,125,128,128,129,127,0
8340,127,128,127,127,128,128,128,128,0
8343,127,126,128,124,127,126,129,128,0
8346,127,127,127,126,128,127,129,128,0
8349,127,128,127,128,128,128,128,128,0
8357,127,128,128,126,124,124,128,127,0
8353,127,129,126,127,128,127,128,128,0
8360,127,128,128,127,124,128,123,127,0
8363,130,127,128,131,129,129,128,128,0
8366,127,128,127,127,129,130,129,129,0
8370,127,127,127,125,127,127,130,128,0
8376,127,128,128,126,127,127,129,128,0
8380,128,128,128,128,128,127,128,128,0
8383,128,128,128,128,127,128,128,128,0
8387,127,128,128,126,123,126,122,126,0
8390,130,126,128,129,129,128,126,127,0
8447,126,127,128,128,128,131,128,128,0
8458,127,128,129,126,129,129,128,128,0
8464,126,127,128,126,128,128,128,129,0
8514,127,125,128,126,128,127,127,128,0
8528,127,128,128,126,128,129,127,128,0
8544,126,128,126,127,129,127,128,128,0
8555,126,127,127,127,127,124,128,127,0
8565,127,127,128,128,123,125,129,127,0
8571,128,128,128,128,126,128,127,127,0
8576,129,128,127,128,128,128,127,128,0
8580,127,127,128,127,127,127,123,125,0
8583,130,127,127,130,128,128,124,126,0
8587,129,127,127,129,126,128,129,128,0
8590,128,128,127,127,128,128,129,128,0
8593,127,128,127,126,129,127,129,128,0
8597,129,126,127,125,128,126,129,128,0
8600,127,127,127,127,128,128,128,128,0
8603,127,128,127,129,128,128,128,127,0
8607,127,128,128,128,127,126,128,127,0
8610,127,126,128,131,130,128,123,126,0
8614,130,127,128,129,125,124,128,128,0
8617,128,128,127,127,130,126,128,128,0
8620,128,128,127,126,129,125,128,128,0
8623,127,128,128,125,127,126,128,128,0
8627,127,128,127,127,128,128,128,128,0
8630,128,128,127,129,127,128,128,128,0
8633,127,128,127,129,126,128,129,128,0
8637,127,126,128,129,123,124,128,128,0
8640,127,128,127,130,128,127,128,128,0
8644,128,128,126,129,128,127,128,128,0
8647,128,128,126,128,125,125,128,128,0
8651,129,127,127,131,128,128,123,125,0
8654,131,127,127,129,127,128,125,128,0
8657,127,129,127,125,128,129,130,128,0
8660,127,128,127,125,129,127,128,127,0
8664,129,127,128,126,130,126,127,127,0
8667,128,128,128,126,128,127,128,127,0
8671,127,128,128,129,127,127,128,128,0
8677,127,127,128,128,127,127,129,128,0
8682,126,124,129,131,127,127,122,125,0
8685,131,126,128,130,126,125,127,128,0
8689,128,128,128,128,127,129,128,129,0
8692,127,128,127,128,127,127,129,128,0
8694,126,127,126,125,127,127,129,128,0
8698,127,128,130,125,127,128,129,127,0
8700,128,128,126,128,126,129,128,128,0
8704,128,128,127,127,126,129,128,127,0
8711,130,127,128,130,127,129,126,127,0
8708,127,127,128,126,121,127,122,125,0
8715,130,127,130,125,127,129,129,128,0
8720,128,129,130,127,127,128,128,128,0
8724,126,128,128,125,127,126,128,128,0
8727,126,127,127,126,128,128,128,128,0
8731,126,128,128,128,129,127,128,128,0
8734,127,128,128,128,130,128,128,128,0
8737,126,127,127,126,128,124,127,128,0
8741,126,126,128,126,128,127,128,128,0
8744,126,126,127,129,128,128,127,127,0
8748,127,128,127,126,128,128,127,127,0
8751,127,127,126,130,127,128,123,125,0
8755,131,127,128,129,127,128,124,126,0
8758,128,125,127,127,129,128,129,127,0
8761,128,128,127,127,128,127,128,128,0
8764,127,128,127,124,128,127,129,128,0
8787,125,128,126,126,127,126,129,127,0
8792,127,128,127,129,128,127,128,128,0
8797,126,128,128,128,127,128,128,127,0
8802,127,128,129,127,126,125,128,128,0
8808,127,127,128,128,128,126,127,128,0
8858,127,126,127,127,128,129,128,128,0
8872,128,128,128,128,127,128,128,127,0
8890,127,127,128,128,126,127,126,125,0
8899,129,126,127,131,128,129,122,126,0
8905,129,126,127,128,123,130,129,128,0
8910,127,128,127,127,128,129,129,128,0
8916,127,128,129,125,128,127,128,127,0
8920,127,126,126,130,128,128,125,127,0
8924,128,128,127,129,125,124,130,128,0
8928,128,129,130,126,128,129,129,128,0
8931,127,129,127,128,128,128,129,128,0
8934,129,128,130,125,128,127,131,129,0
8938,127,128,128,127,129,128,128,128,0
8941,127,129,127,128,128,128,128,128,0
8944,127,128,128,127,129,127,127,128,0
8947,129,127,128,132,128,128,123,125,0
8951,129,127,128,131,127,126,129,127,0
8954,126,128,128,128,131,129,130,128,0
8958,126,128,126,127,130,126,130,128,0
8961,123,128,127,125,128,125,127,125,0
8965,124,128,127,126,128,127,128,128,0
8968,128,128,127,126,128,128,127,128,0
8972,126,127,127,126,128,128,127,128,0
8975,127,124,127,126,127,128,123,125,0
8979,131,126,126,130,128,129,122,126,0
8982,128,128,126,126,128,129,127,128,0
8985,127,127,129,128,128,128,128,127,0
8990,126,127,127,128,124,126,128,127,0
8995,127,128,127,125,128,129,128,128,0
8999,127,128,127,128,129,129,127,128,0
9002,127,128,127,129,128,128,128,128,0
9005,127,128,128,130,127,127,123,125,0
9009,130,127,127,131,128,128,123,126,0
9012,126,128,129,129,129,128,129,129,0
9016,127,128,127,125,127,128,130,128,0
9019,127,128,130,125,127,125,129,128,0
9022,127,127,130,127,128,128,128,128,0
9024,127,129,128,128,127,128,128,128,0
9028,126,128,127,127,128,127,128,127,0
9031,127,128,128,128,123,126,121,126,0
9034,130,127,128,131,128,128,123,126,0
9037,126,129,127,128,128,129,129,129,0
9039,127,128,128,126,128,128,129,128,0
9042,126,127,127,125,127,128,131,127,0
9045,127,127,127,126,128,128,128,128,0
9048,128,127,128,129,127,129,130,128,0
9051,127,127,126,129,126,129,129,128,0
9054,127,127,128,128,125,128,129,128,0
9057,127,126,127,128,125,128,128,128,0
9060,128,128,126,129,127,128,128,128,0
9063,127,127,128,129,127,129,128,128,0
9066,127,127,127,126,125,129,122,126,0
9069,130,127,127,130,128,129,123,125,0
9072,129,126,128,127,127,129,127,128,0
9074,128,128,127,127,127,128,127,128,0
9077,127,128,127,127,128,127,129,128,0
9081,127,128,128,127,128,127,128,128,0
9084,128,128,128,128,129,128,127,128,0
9088,126,128,128,127,128,127,128,128,0
9094,127,128,128,127,126,126,128,127,0
9097,125,127,128,128,128,125,129,128,0
9100,127,129,127,128,127,128,128,127,0
9103,126,128,128,127,128,128,128,128,0
9105,129,128,127,127,128,126,128,128,0
9109,127,126,127,130,129,129,123,126,0
9111,130,128,127,130,129,129,125,129,0
9114,128,128,127,126,129,129,130,128,0
9118,128,128,128,125,129,129,129,128,0
9121,126,126,128,126,127,127,129,128,0
9124,127,127,127,127,128,128,128,127,0
9127,127,128,127,126,127,126,128,128,0
9130,128,128,128,127,127,126,127,127,0
9134,126,126,128,127,124,126,125,126,0
9137,130,126,127,130,128,128,122,124,0
9141,127,128,127,128,128,129,128,129,0
9144,127,127,127,125,129,128,130,128,0
9149,126,127,128,126,128,126,128,128,0
9152,127,127,128,128,129,127,129,128,0
9155,127,128,127,127,128,128,129,128,0
9158,127,128,127,127,127,126,126,128,0
9161,127,127,127,130,128,128,123,126,0
9166,130,127,127,131,128,129,125,127,0
9169,127,128,127,126,129,129,129,128,0
9172,127,128,126,126,129,128,129,128,0
9176,126,127,127,125,126,127,130,127,0
9181,127,128,128,126,128,127,129,128,0
9187,127,128,128,128,127,128,128,128,0
9191,127,128,128,128,126,127,128,128,0
9197,126,127,127,128,125,123,122,126,0
9203,129,127,128,131,127,128,124,126,0
9207,127,128,128,126,129,128,128,128,0
9211,127,128,128,128,130,128,129,128,0
9214,126,128,128,125,129,123,125,126,0
9218,129,126,127,130,129,129,124,127,0
9221,127,128,128,126,128,128,129,128,0
9224,128,129,128,126,127,128,129,128,0
9228,127,128,127,125,129,128,130,128,0
9231,129,128,128,127,128,128,129,128,0
9234,128,127,128,129,128,129,128,128,0
9238,128,128,127,128,127,128,128,128,0
9241,126,128,128,126,123,124,124,125,0
9245,131,126,128,131,128,129,124,126,0
9248,128,127,129,126,129,130,129,128,0
9251,126,128,127,128,129,128,128,127,0
9254,127,128,126,128,129,127,127,128,0
9256,127,127,127,127,128,127,127,128,0
9259,127,128,126,128,128,129,129,128,0
9262,127,128,126,128,128,128,128,127,0
9264,127,128,126,126,127,125,128,127,0
9269,127,127,126,127,127,126,127,126,0
9272,129,125,127,129,126,127,124,126,0
9275,129,127,125,130,127,125,124,126,0
9280,129,127,125,129,128,128,126,127,0
9283,128,126,127,129,126,126,126,128,0
9287,128,128,127,126,130,129,128,128,0
9290,129,128,127,127,128,128,128,128,0
9294,128,128,127,127,128,128,131,128,0
9298,125,127,128,125,128,128,129,127,0
9303,127,127,128,127,126,129,129,128,0
9308,128,128,127,129,127,128,129,128,0
9312,127,129,126,128,127,127,128,128,0
9315,126,128,128,126,127,128,129,127,0
9321,128,128,127,127,129,128,129,127,0
9318,129,127,127,129,127,126,125,128,0
9324,127,129,127,127,129,127,129,129,0
9332,131,127,128,127,127,130,128,128,0
9328,126,127,127,130,127,129,123,127,0
9335,128,128,128,126,128,129,128,128,0
9339,128,128,128,126,127,129,128,129,0
9341,128,127,127,126,127,128,128,127,0
9344,127,128,128,129,127,129,128,128,0
9348,127,129,128,129,128,128,128,127,0
9351,127,128,129,128,126,125,127,127,0
9354,129,127,127,130,129,127,122,125,0
9357,130,126,128,130,125,127,128,128,0
9359,127,128,129,128,129,128,131,128,0
9362,126,128,127,126,127,127,129,128,0
9365,126,127,128,126,128,129,129,129,0
9367,127,128,126,129,127,128,127,128,0
9370,128,127,128,129,128,127,128,128,0
9373,128,128,127,127,128,127,128,127,0
9376,126,127,128,127,126,127,126,126,0
9380,130,126,129,131,129,128,124,127,0
9382,128,128,128,128,127,130,129,127,0
9386,127,129,128,126,130,128,129,128,0
9390,127,128,127,126,128,128,126,128,0
9394,127,127,128,126,127,128,128,127,0
9398,128,127,127,128,128,129,128,128,0
9402,128,127,127,127,127,126,127,127,0
9406,127,127,128,130,127,128,122,125,0
9410,129,127,126,129,128,128,123,126,0
9415,128,127,130,126,127,129,129,127,0
9419,128,129,127,125,128,128,129,128,0
9422,127,128,127,125,124,126,126,128,0
9425,127,128,127,126,129,128,129,127,0
9428,128,128,127,127,128,128,129,128,0
9431,128,129,128,127,128,127,129,128,0
9433,127,128,127,127,127,124,129,127,0
9436,127,128,130,130,127,127,123,125,0
9438,129,127,127,128,129,128,129,128,0
9442,127,128,127,128,128,127,129,129,0
9445,128,128,129,123,124,127,129,129,0
9449,128,127,128,123,128,128,129,129,0
9452,127,127,128,124,127,129,128,128,0
9456,128,128,128,125,127,129,128,128,0
9460,126,127,127,126,126,126,121,126,0
9462,131,126,128,131,127,128,124,126,0
9465,130,127,127,126,128,128,130,128,0
9468,126,129,127,127,129,128,128,128,0
9471,127,128,127,129,126,126,128,128,0
9474,127,127,129,129,128,126,128,128,0
9480,126,127,129,128,129,127,128,128,0
9485,127,128,126,128,128,127,127,128,0
9488,128,128,127,128,127,124,126,127,0
9492,127,128,130,128,120,126,129,128,0
9497,127,128,127,130,130,129,128,128,0
9500,127,128,127,131,128,128,128,128,0
9503,127,127,128,128,126,126,128,127,0
9507,129,126,127,132,128,129,124,126,0
9510,130,127,126,129,121,129,130,128,0
9514,128,128,128,126,128,129,130,127,0
9520,127,128,129,127,127,127,130,128,0
9524,126,127,128,126,128,127,129,128,0
9527,127,127,128,128,128,129,128,127,0
9531,127,127,127,130,128,129,128,127,0
9534,128,128,128,128,124,126,127,128,0
9538,126,127,129,129,125,124,126,127,0
9540,129,127,128,132,127,128,123,126,0
9543,126,128,128,130,128,128,127,128,0
9546,128,128,128,128,128,129,128,128,0
9549,127,127,130,128,125,128,128,127,0
9552,129,127,128,130,126,126,124,126,0
9554,128,128,127,128,130,128,128,128,0
9558,127,129,127,126,127,127,129,128,0
9561,127,127,130,127,129,128,128,128,0
9563,130,128,129,128,125,129,127,128,0
9566,127,128,128,128,130,129,128,128,0
9570,128,127,129,128,130,128,129,128,0
9573,126,126,127,132,130,128,123,126,0
9577,130,127,127,130,127,126,129,128,0
9580,128,128,127,127,129,129,130,128,0
9583,127,128,127,127,127,127,129,128,0
9586,127,127,127,126,128,127,129,128,0
9590,127,128,127,127,127,126,126,127,0
9593,128,128,126,129,127,127,127,127,0
9596,128,127,127,127,128,127,129,128,0
9600,126,127,128,129,128,128,123,126,0
9604,128,127,127,130,128,126,127,128,0
9608,127,128,127,127,129,129,129,128,0
9611,126,127,127,128,127,128,129,128,0
9614,127,127,128,127,128,127,130,128,0
9619,126,127,127,126,127,128,128,128,0
9622,127,127,128,128,128,128,127,128,0
9626,127,127,128,128,127,127,128,128,0
9629,126,127,127,128,128,124,124,127,0
9632,128,127,129,129,126,127,125,126,0
9635,128,126,128,128,129,129,129,128,0
9638,128,129,128,126,128,128,127,127,0
9641,128,128,127,127,122,126,129,128,0
9644,127,128,127,127,127,128,128,128,0
9647,128,128,126,127,127,127,128,128,0
9650,128,128,127,127,126,128,129,128,0
9654,127,126,127,127,126,127,127,128,0
9657,128,126,127,130,128,127,124,126,0
9659,131,128,127,127,130,129,129,127,0
9662,128,128,126,128,129,128,129,127,0
9665,127,127,128,125,128,124,129,128,0
9669,128,127,128,125,127,127,129,128,0
9672,127,128,127,128,129,128,128,128,0
9675,127,128,127,128,129,129,128,127,0
9680,126,127,127,127,128,128,128,127,0
9685,127,128,127,128,128,128,127,127,0
9688,127,127,128,128,127,129,128,128,0
9692,128,129,128,128,128,128,128,128,0
9695,127,128,127,127,128,125,122,127,0
9699,129,128,127,130,129,127,123,125,0
9703,130,128,127,131,128,126,129,128,0
9706,127,128,127,124,129,128,129,128,0
9709,127,128,128,126,129,127,128,128,0
9712,129,125,127,125,130,125,128,128,0
9715,126,128,130,127,128,129,129,128,0
9719,127,128,127,126,128,129,129,129,0
9726,126,128,127,126,127,128,128,128,0
9729,126,126,129,131,127,127,123,126,0
9732,130,127,128,130,121,129,129,129,0
9734,128,128,128,126,128,130,130,128,0
9739,126,128,127,126,128,129,130,128,0
9743,127,127,128,128,128,128,130,128,0
9746,126,128,129,128,127,128,128,127,0
9751,128,128,126,127,128,129,129,128,0
9755,127,128,128,126,125,127,126,127,0
9758,128,127,128,130,127,127,123,126,0
9762,131,127,128,130,125,126,129,128,0
9766,127,128,128,128,128,128,127,129,0
9769,127,128,128,128,128,128,129,128,0
9773,128,128,128,126,126,127,128,128,0
9776,126,128,129,128,127,127,127,128,0
9780,127,128,127,127,126,128,126,128,0
9785,127,128,125,128,127,128,128,128,0
9788,126,127,127,130,125,126,124,126,0
9792,128,127,127,130,126,127,124,125,0
9795,126,128,127,127,128,129,128,128,0
9799,128,128,128,127,127,128,128,128,0
9802,126,127,126,127,125,126,130,128,0
9806,126,127,127,126,130,128,129,128,0
9809,128,128,127,128,129,129,129,128,0
9814,127,128,128,128,129,128,128,127,0
9817,129,127,127,131,128,126,124,126,0
9822,130,126,127,130,129,127,126,129,0
9825,127,129,128,127,129,129,128,128,0
9828,127,129,127,125,130,129,130,128,0
9832,126,128,127,127,128,128,129,128,0
9836,126,128,127,126,127,128,128,128,0
9842,128,128,126,129,127,128,128,128,0
9846,126,127,126,126,127,127,128,128,0
9852,126,127,127,127,123,126,128,128,0
9858,128,125,128,130,125,127,124,127,0
9863,129,127,128,129,125,128,129,128,0
9866,127,128,127,126,129,128,128,128,0
9870,127,128,128,126,125,127,128,128,0
9873,127,128,128,127,126,128,129,128,0
9876,127,129,127,128,130,128,128,128,0
9880,127,128,127,128,129,128,129,129,0
9883,127,128,127,127,126,127,128,128,0
9886,128,126,127,131,128,129,123,127,0
9889,130,126,127,128,130,129,129,128,0
9892,127,128,127,128,128,128,128,129,0
9896,127,127,128,127,129,128,128,128,0
9900,126,128,129,125,129,128,129,128,0
9902,127,128,127,126,128,130,128,128,0
9905,128,128,127,127,128,128,129,128,0
9908,128,128,128,126,123,125,122,126,0
9911,129,126,128,130,128,128,124,126,0
9915,130,126,128,127,131,129,130,127,0
9918,129,129,128,124,128,129,130,128,0
9922,127,128,127,124,129,128,129,127,0
9925,126,127,128,128,128,128,129,128,0
9928,126,128,127,127,128,128,128,128,0
9931,126,128,127,129,127,129,128,128,0
9935,127,128,127,128,125,125,129,128,0
9938,126,127,128,126,128,127,124,126,0
9941,131,126,127,131,128,126,125,128,0
9943,128,128,127,125,129,128,128,129,0
9947,127,128,130,125,128,127,129,128,0
9951,126,127,129,126,128,126,129,127,0
9956,127,128,128,127,127,128,128,128,0
9961,128,128,127,128,128,128,128,127,0
9965,126,128,128,129,128,127,129,127,0
9968,129,127,127,131,127,127,122,126,0
9971,128,126,127,133,128,126,131,128,0
9974,127,128,126,128,131,128,129,127,0
9977,127,128,126,128,128,127,129,128,0
9980,126,128,127,125,128,127,129,128,0
9983,127,128,128,128,128,126,128,128,0
9986,127,128,127,128,127,127,127,128,0
9989,127,128,127,127,128,126,127,128,0
9991,125,127,128,127,127,127,128,128,0
9994,127,128,128,128,125,128,127,127,0
9997,128,128,127,128,127,128,128,128,0
10001,127,128,128,127,125,126,126,126,0
10005,131,127,128,129,127,129,123,126,0
10008,130,127,127,129,127,129,125,127,0
10011,127,127,127,127,129,129,130,128,0
10014,127,129,127,125,128,127,129,128,0
10019,127,126,130,125,126,125,128,128,0
10023,127,127,128,126,129,127,129,127,0
10026,126,128,127,129,127,128,128,127,0
10029,128,128,128,127,129,127,128,128,0
10032,128,128,127,127,127,127,128,127,0
10035,128,126,127,132,128,127,122,126,0
10038,127,128,127,128,128,128,128,127,0
10042,127,128,127,127,129,127,128,128,0
10045,126,128,129,128,129,126,129,128,0
10048,127,127,128,128,127,128,129,128,0
10052,127,128,128,129,127,128,127,128,0
10056,127,129,127,130,128,128,129,127,0
10061,127,127,127,130,127,126,125,126,0
10064,128,126,126,128,127,128,124,126,0
10067,129,127,127,126,127,129,129,128,0
10070,128,128,127,128,129,129,130,128,0
10072,126,128,127,124,129,129,129,128,0
10076,126,128,127,125,129,128,129,127,0
10079,128,128,127,127,127,129,128,127,0
10082,127,127,126,127,128,129,129,128,0
10089,127,128,127,127,126,124,128,128,0
10092,127,127,127,132,127,127,122,125,0
10097,131,126,126,130,126,129,128,127,0
10100,128,128,127,129,129,129,130,128,0
10104,127,128,127,126,128,125,129,127,0
10108,126,128,127,128,127,128,127,128,0
10111,129,128,128,128,128,128,128,128,0
10113,126,128,127,127,128,128,128,127,0
10118,126,127,127,129,126,123,128,126,0
10120,130,127,128,132,129,128,123,126,0
10123,130,127,127,128,132,130,130,128,0
10126,126,128,127,129,131,128,129,128,0
10129,126,128,126,128,130,126,129,127,0
10132,126,127,129,124,127,127,127,127,0
10134,130,127,128,124,127,128,128,128,0
10138,128,128,128,127,127,128,128,128,0
10141,127,128,128,127,123,127,128,128,0
10145,127,127,128,129,128,129,123,126,0
10148,131,127,128,130,125,129,129,128,0
10151,127,128,127,127,131,132,130,129,0
10154,126,128,126,126,128,129,128,128,0
10158,126,128,128,127,130,127,129,129,0
10165,126,128,127,128,129,128,128,128,0
10170,127,129,128,128,128,128,127,128,0
10173,127,128,128,127,129,125,124,126,0
10176,129,127,127,132,129,127,123,126,0
10180,131,127,126,130,124,129,131,128,0
10182,127,128,127,129,128,131,129,129,0
10186,126,128,127,128,127,127,129,128,0
10189,127,126,128,127,126,125,129,128,0
10192,127,127,127,127,128,128,129,128,0
10194,128,128,127,126,126,129,128,128,0
10197,127,128,126,125,126,128,127,129,0
10200,127,127,128,126,125,125,126,127,0
10203,129,127,128,131,127,126,125,126,0
10206,127,128,128,127,128,129,129,127,0
10209,127,128,128,126,128,127,128,127,0
10213,127,127,129,128,126,125,127,128,0
10216,127,127,128,128,126,127,127,127,0
10220,128,128,127,129,128,127,127,127,0
10223,127,128,126,127,128,127,128,128,0
10226,126,127,126,131,129,128,122,126,0
10229,129,127,126,132,129,130,123,127,0
10232,129,126,128,128,131,130,130,129,0
10235,127,129,127,127,130,128,131,128,0
10238,127,126,128,128,125,127,130,129,0
10240,127,126,128,125,128,127,129,128,0
10243,128,128,126,128,129,127,127,129,0
10246,127,129,128,126,129,127,128,129,0
10249,126,128,128,129,127,127,123,126,0
10252,129,127,128,130,127,128,123,127,0
10255,126,128,127,128,129,129,131,129,0
10259,127,129,127,128,128,128,128,129,0
10263,127,128,127,124,126,125,127,128,0
10267,127,128,128,125,124,126,128,127,0
10273,128,128,127,128,125,129,128,127,0
10279,127,129,127,129,127,128,128,127,0
10282,127,128,127,129,121,125,128,128,0
10285,128,127,128,128,126,127,122,125,0
10289,131,126,127,130,122,130,129,128,0
10293,128,128,127,125,129,128,128,127,0
10296,128,128,128,127,131,127,129,128,0
10301,126,126,128,127,127,127,128,128,0
10304,128,127,128,126,128,128,127,127,0
10308,127,128,127,126,129,129,127,128,0
10311,126,127,129,126,128,126,128,127,0
10315,128,126,129,131,127,127,123,125,0
10318,130,127,129,129,122,127,130,127,0
10320,128,128,128,125,128,128,129,128,0
10324,126,128,128,128,128,128,130,126,0
10326,126,128,128,125,126,124,127,128,0
10329,127,128,127,127,128,128,128,127,0
10333,127,128,129,127,128,126,128,128,0
10335,127,127,127,125,127,127,128,128,0
10339,127,126,128,126,127,127,128,127,0
10343,127,127,128,128,127,129,128,127,0
10347,128,128,127,127,127,127,128,127,0
10350,128,127,128,127,123,127,129,127,0
10354,127,126,127,131,128,128,124,125,0
10357,130,127,127,130,128,127,126,128,0
10361,128,129,128,126,128,129,128,127,0
10364,128,128,127,126,128,128,127,128,0
10367,129,126,126,127,129,128,129,128,0
10372,127,127,127,127,128,127,128,128,0
10377,128,128,126,127,129,127,128,128,0
10382,128,128,128,126,125,126,124,127,0
10386,128,127,127,128,127,127,125,127,0
10389,128,127,126,129,126,128,125,128,0
10392,127,128,127,129,132,132,129,128,0
10395,127,127,126,128,130,128,128,128,0
10400,129,128,127,128,128,129,128,128,0
10404,126,127,127,129,129,128,127,128,0
10408,126,128,127,126,128,127,127,128,0
10411,127,128,128,126,127,127,128,128,0
10414,125,127,128,125,128,126,128,128,0
10418,126,128,127,127,127,126,128,127,0
10421,128,128,128,127,127,129,128,128,0
10425,127,128,127,127,124,125,128,127,0
10428,129,127,128,129,128,128,123,126,0
10431,130,126,127,129,128,126,127,127,0
10434,128,128,127,127,128,129,130,128,0
10437,126,127,126,127,128,127,129,128,0
10440,127,128,129,127,127,124,129,127,0
10444,127,128,128,125,127,127,128,128,0
10447,128,128,126,126,128,128,128,128,0
10450,126,128,127,127,128,127,127,127,0
10453,126,126,127,126,127,126,129,127,0
10456,127,127,128,127,123,128,128,128,0
10460,128,127,127,130,128,129,128,128,0
10463,128,128,127,128,128,127,127,128,0
10468,127,125,127,130,128,128,123,126,0
10471,130,126,128,130,128,129,123,127,0
10474,128,127,127,125,129,129,130,128,0
10479,130,128,128,127,126,129,128,128,0
10484,127,128,128,124,128,127,130,128,0
10491,126,127,127,127,128,128,127,128,0
10496,128,128,128,127,128,129,128,128,0
10500,127,128,127,128,128,129,127,128,0
10503,126,128,128,127,130,128,129,127,0
10507,127,128,127,126,129,127,128,128,0
10512,127,128,126,129,128,127,128,127,0
10515,128,128,128,128,127,128,128,128,0
10518,128,128,128,131,128,128,122,126,0
10522,130,127,127,130,127,128,123,126,0
10525,130,127,127,125,129,127,129,127,0
10528,128,127,130,127,128,130,131,129,0
10532,127,128,127,125,126,127,129,129,0
10536,129,128,128,125,127,127,128,128,0
10539,128,128,128,126,127,127,129,128,0
10543,127,129,128,126,127,128,128,128,0
10546,127,128,127,126,128,125,124,126,0
10549,128,127,128,130,127,126,125,127,0
10552,129,127,128,129,122,131,130,129,0
10556,127,128,128,128,127,128,128,128,0
10559,130,128,127,126,124,126,128,128,0
10562,127,127,128,126,129,128,129,127,0
10565,127,128,126,127,128,128,128,128,0
10569,127,128,127,126,127,128,128,128,0
10572,126,128,127,127,126,124,127,128,0
10575,127,128,128,129,129,128,123,126,0
10578,130,127,127,130,127,127,124,127,0
10581,125,129,127,128,129,129,131,129,0
10584,127,128,127,125,128,127,130,129,0
10588,127,128,129,127,124,125,128,128,0
10592,127,126,129,128,127,128,128,127,0
10596,127,128,128,128,127,129,127,128,0
10602,127,127,126,127,128,128,129,128,0
10606,125,126,128,127,128,127,127,126,0
10609,128,127,127,130,126,128,124,127,0
10612,127,128,128,128,127,130,128,128,0
10615,127,129,127,127,128,129,128,128,0
10618,127,128,127,127,127,128,129,128,0
10621,127,128,127,126,129,129,129,127,0
10624,128,128,126,126,128,128,128,128,0
10627,128,128,128,126,129,127,127,128,0
10630,127,127,128,129,126,128,123,125,0
10633,130,127,126,131,128,127,126,127,0
10636,127,129,127,128,130,127,129,127,0
10639,127,128,127,128,128,126,129,128,0
10642,126,127,127,127,128,127,129,128,0
10646,128,126,129,127,129,128,128,128,0
10649,129,128,128,127,128,128,128,128,0
10652,127,128,128,126,127,128,129,128,0
10655,128,127,127,129,126,128,123,126,0
10659,131,126,128,130,128,129,123,127,0
10662,127,127,127,127,131,129,129,128,0
10666,128,128,128,128,128,127,129,127,0
10669,126,127,128,127,125,127,129,128,0
10672,127,128,128,124,124,126,127,128,0
10676,127,128,126,126,129,127,128,127,0
10680,127,128,127,127,128,128,128,127,0
10683,126,127,127,125,125,126,123,126,0
10690,131,126,128,132,127,129,123,126,0
10693,129,127,127,125,127,131,130,129,0
10697,127,128,127,127,129,131,129,128,0
10701,127,128,129,128,127,126,128,128,0
10707,127,128,130,128,130,127,129,128,0
10712,128,128,128,128,129,128,127,128,0
10715,127,128,127,128,127,127,128,128,0
10719,126,128,128,128,126,127,128,127,0
10722,126,126,127,125,124,127,128,127,0
10725,128,128,128,128,128,127,127,128,0
10729,127,128,127,127,127,127,128,128,0
10733,126,125,128,130,128,128,123,126,0
10735,129,126,127,130,128,128,123,125,0
10739,129,127,126,125,131,131,131,128,0
10742,127,128,127,125,128,129,129,128,0
10745,126,127,129,127,129,129,130,129,0
10749,127,128,127,126,126,128,128,127,0
10752,127,128,127,127,127,128,128,128,0
10755,127,128,128,128,127,128,129,128,0
10758,127,128,128,125,126,124,127,128,0
10761,127,127,129,126,127,125,127,128,0
10763,127,127,127,127,128,128,127,128,0
10766,128,128,127,128,127,128,127,128,0
10770,128,127,128,130,128,128,122,126,0
10774,129,127,127,129,129,128,123,126,0
10778,130,127,127,129,127,125,131,128,0
10781,127,129,127,125,128,130,131,129,0
10784,128,129,127,124,127,128,132,128,0
10788,127,128,128,125,125,126,129,128,0
10791,127,128,128,126,128,129,128,128,0
10794,128,128,127,128,128,128,128,128,0
10796,127,128,128,127,128,127,128,128,0
10801,127,126,127,130,126,126,125,126,0
10804,128,126,127,130,126,125,129,127,0
10807,128,129,127,128,128,130,130,128,0
10812,127,128,127,126,128,128,129,128,0
10818,126,128,127,129,123,128,130,128,0
10823,128,127,127,128,128,128,129,127,0
10826,128,128,128,128,129,128,129,128,0
10829,127,128,127,126,128,126,128,126,0
10832,126,127,127,126,128,127,128,128,0
10835,128,128,127,128,125,125,128,127,0
10838,128,128,128,128,129,130,128,128,0
10842,127,128,127,126,129,125,122,126,0
10845,129,126,129,130,129,128,123,125,0
10849,130,127,128,130,129,128,126,128,0
10852,127,129,127,127,131,130,131,128,0
10856,129,128,127,127,128,127,129,128,0
10859,126,128,126,126,127,128,131,129,0
10862,125,128,126,127,129,127,128,129,0
10865,127,129,127,129,128,128,128,128,0
10869,126,129,126,128,129,129,127,128,0
10872,126,128,128,127,127,126,128,127,0
10876,127,127,127,127,128,126,128,128,0
10879,126,128,127,126,129,128,128,128,0
10882,127,128,127,128,127,126,126,127,0
10885,127,128,128,130,128,128,122,126,0
10888,130,127,126,130,129,128,123,126,0
10893,128,127,128,127,129,129,129,127,0
10896,127,126,127,127,129,129,129,128,0
10899,126,128,127,127,126,128,128,127,0
10904,129,127,127,128,128,128,129,128,0
10907,127,128,125,126,128,130,128,128,0
10910,127,129,127,127,128,129,128,129,0
10913,126,127,127,126,126,123,128,128,0
10917,126,127,127,127,125,126,125,126,0
10921,130,126,127,129,123,127,129,128,0
10926,127,128,127,126,127,128,130,128,0
10932,128,127,126,128,127,127,127,125,0
10935,128,126,127,131,128,128,124,126,0
10938,129,128,128,127,132,131,131,129,0
10941,126,129,127,125,131,127,130,128,0
10944,127,128,127,126,129,127,130,128,0
10947,127,128,127,125,127,126,128,128,0
10950,127,128,125,126,128,128,127,128,0
10953,128,128,127,128,127,128,128,128,0
10956,127,129,128,125,128,123,127,127,0
10959,130,127,127,130,128,128,124,126,0
10962,131,127,128,127,130,128,128,128,0
10965,127,128,125,128,130,130,129,128,0
10969,126,128,125,127,127,127,127,128,0
10972,127,128,126,124,126,127,128,128,0
10975,127,127,127,125,127,128,127,127,0
10978,128,128,125,127,127,128,128,128,0
10980,127,127,128,127,123,127,127,129,0
10983,127,127,126,128,122,126,127,128,0
10986,126,127,128,128,125,128,127,128,0
10999,127,128,127,128,127,129,127,128,0
11004,127,128,127,129,126,127,128,127,0
11007,129,127,128,132,129,128,124,126,0
11011,129,126,128,131,127,127,127,128,0
11014,127,128,125,127,130,127,128,128,0
11017,127,128,124,124,128,126,129,128,0
11020,127,127,127,126,128,126,129,127,0
11024,127,126,126,125,128,127,129,127,0
11027,128,128,127,126,128,130,129,129,0
11031,127,128,129,126,129,128,128,128,0
11036,127,127,130,132,129,127,122,125,0
11039,130,126,128,131,127,125,130,128,0
11042,128,128,128,126,128,129,128,129,0
11045,127,128,126,126,127,127,128,128,0
11048,127,127,126,126,127,126,128,128,0
11051,127,127,126,126,127,128,128,128,0
11054,128,127,128,128,127,128,128,128,0
11058,126,128,126,127,128,127,129,128,0
11061,126,126,127,129,126,127,128,128,0
11064,127,127,129,131,126,128,123,126,0
11069,129,127,129,130,122,129,130,128,0
11071,127,128,126,127,128,127,129,128,0
11074,127,128,127,128,128,126,128,125,0
11077,128,127,128,129,126,127,125,127,0
11080,128,126,129,127,128,128,128,127,0
11083,127,128,125,125,128,128,128,128,0
11086,127,128,126,125,127,127,128,128,0
11089,127,128,126,128,125,125,128,128,0
11093,126,128,127,125,128,128,128,128,0
11096,128,128,127,127,127,128,128,128,0
11099,127,127,130,129,127,128,123,126,0
11102,130,127,128,132,128,128,123,126,0
11105,126,128,128,128,132,129,128,128,0
11110,126,129,126,126,130,128,129,127,0
11113,126,129,128,127,129,127,128,128,0
11117,126,127,127,128,128,127,129,127,0
11120,127,128,127,126,127,127,128,127,0
11123,127,128,129,127,127,128,128,127,0
11126,127,128,128,128,126,128,122,126,0
11130,131,126,129,130,128,128,123,126,0
11136,128,128,127,125,128,129,128,128,0
11140,128,128,128,125,127,128,128,129,0
11143,126,127,128,128,130,126,129,128,0
11146,126,125,129,128,129,127,127,127,0
11149,127,127,128,127,127,129,128,127,0
11151,127,128,127,128,127,129,128,128,0
11154,126,127,127,126,127,128,129,129,0
11158,126,126,128,127,123,126,123,126,0
11161,131,126,129,130,125,125,129,128,0
11165,127,128,129,128,127,128,128,128,0
11168,126,128,127,124,125,126,129,128,0
11171,126,128,127,127,123,126,124,126,0
11174,129,127,129,129,125,126,126,128,0
11179,129,128,129,126,129,126,127,127,0
11183,130,128,127,125,128,125,128,127,0
11186,127,127,128,129,128,126,124,127,0
11189,128,127,128,129,126,126,129,128,0
11192,128,128,127,126,128,128,128,128,0
11195,126,128,128,128,129,128,130,128,0
11198,126,128,129,129,129,126,129,128,0
11202,126,128,129,127,130,128,128,128,0
11206,127,128,126,127,129,129,129,128,0
11209,127,128,126,128,129,127,129,127,0
11211,126,127,127,126,129,126,122,126,0
11214,130,127,128,131,128,127,125,128,0
11218,126,128,126,128,127,129,129,127,0
11221,127,127,128,125,127,128,129,127,0
11224,127,127,129,126,130,127,130,128,0
11227,125,127,128,128,129,128,129,128,0
11230,129,128,127,129,128,129,129,128,0
11235,127,128,128,128,128,126,126,128,0
11241,127,128,127,129,124,126,128,128,0
11244,127,126,128,131,128,130,123,126,0
11247,129,127,127,126,130,128,128,128,0
11249,128,128,127,128,127,127,127,128,0
11252,128,127,129,127,127,126,128,127,0
11255,127,125,129,129,127,128,123,126,0
11258,128,127,129,127,129,129,127,128,0
11261,127,129,126,126,129,128,128,128,0
11265,127,128,129,127,129,127,129,127,0
11268,127,127,129,128,126,128,129,127,0
11271,127,129,130,129,130,129,127,128,0
11274,128,129,129,126,128,128,129,128,0
11278,126,128,129,130,128,127,123,125,0
11281,131,126,129,130,129,128,123,126,0
11285,128,127,128,127,129,130,130,128,0
11288,127,129,126,127,129,127,129,127,0
11295,128,127,126,126,127,128,130,128,0
11298,127,127,126,127,129,128,129,128,0
11301,127,128,126,129,127,129,129,127,0
11305,128,128,126,127,127,128,129,128,0
11308,127,127,128,129,127,127,127,128,0
11311,127,128,128,127,128,128,129,128,0
11314,128,128,128,127,126,129,128,127,0
11317,129,129,128,129,128,128,127,128,0
11319,126,127,128,131,128,127,123,125,0
11322,129,127,128,129,127,127,123,126,0
11325,128,128,127,129,130,127,128,127,0
11328,127,128,128,127,129,127,128,128,0
11332,127,127,128,127,126,126,129,127,0
11336,126,126,128,127,128,127,128,128,0
11341,127,128,126,127,126,128,127,128,0
11346,127,127,128,128,127,128,128,128,0
11349,126,127,128,126,128,127,129,128,0
11352,127,128,129,126,128,128,128,128,0
11356,127,126,129,127,128,128,128,128,0
11359,127,128,128,128,128,128,128,128,0
11362,127,127,128,127,126,125,126,127,0
11366,127,127,128,126,127,127,128,128,0
11370,128,128,127,132,128,130,122,126,0
11372,130,127,127,128,127,129,128,128,0
11375,128,128,128,125,127,128,128,129,0
11379,128,129,127,126,126,125,129,127,0
11382,127,129,127,126,129,128,128,128,0
11386,127,129,127,127,131,128,129,128,0
11389,128,128,128,128,127,126,127,127,0
11392,131,127,128,131,128,128,123,126,0
11394,130,127,128,130,125,129,130,128,0
11398,126,129,128,126,128,129,129,128,0
11403,128,128,127,126,126,127,129,128,0
11407,129,128,129,124,126,127,128,128,0
11410,127,128,129,126,128,127,128,128,0
11414,127,128,129,128,127,128,129,128,0
11418,127,127,128,127,128,128,128,128,0
11423,127,126,128,128,126,126,127,128,0
11428,127,127,128,127,129,128,127,127,0
11432,127,127,127,129,129,129,127,127,0
11435,128,127,128,126,121,128,128,128,0
11438,128,125,127,130,128,129,123,126,0
11446,130,127,127,130,128,127,126,128,0
11449,127,128,127,127,131,129,130,128,0
11453,127,128,126,126,128,129,129,128,0
11459,126,127,128,126,127,128,129,127,0
11465,127,128,129,127,128,128,129,127,0
11470,129,128,128,128,127,127,129,128,0
11473,127,128,128,126,128,127,128,128,0
11476,126,127,128,127,124,126,123,125,0
11479,129,126,128,131,127,127,123,126,0
11482,126,128,129,126,128,128,128,128,0
11485,127,128,127,126,127,128,128,128,0
11489,127,128,129,128,120,128,129,128,0
11492,129,126,129,126,125,128,128,127,0
11496,127,128,128,129,126,129,129,128,0
11499,127,128,127,127,129,128,128,128,0
11502,127,128,128,131,130,128,123,127,0
11506,130,126,127,130,130,128,124,127,0
11509,129,128,125,127,129,129,129,128,0
11513,128,126,129,126,128,127,129,128,0
11516,126,128,126,124,128,127,129,128,0
11520,127,127,128,127,127,127,129,128,0
11528,127,128,128,126,128,128,129,128,0
11524,127,128,127,126,128,128,128,127,0
11531,127,127,127,126,126,126,128,128,0
11536,127,127,128,126,128,126,128,128,0
11539,127,128,127,127,128,128,127,127,0
11543,127,128,129,127,127,127,128,127,0
11548,127,127,128,129,128,128,123,126,0
11551,130,126,128,132,129,129,123,126,0
11556,131,127,128,129,125,128,128,128,0
11560,128,128,128,126,128,128,128,128,0
11564,126,128,125,127,128,129,128,128,0
11567,126,126,128,127,127,128,129,128,0
11572,127,128,131,125,127,129,128,128,0
11578,127,128,127,126,128,128,129,128,0
11582,125,127,128,127,127,126,128,128,0
11590,127,127,128,125,125,128,128,128,0
11594,128,128,128,127,126,127,126,128,0
11598,129,128,129,126,128,129,127,128,0
11604,126,126,128,129,124,129,123,125,0
11608,130,126,128,131,128,128,123,126,0
11611,130,127,128,129,129,131,131,128,0
11615,127,128,127,127,128,127,130,129,0
11619,127,128,128,125,126,126,129,128,0
11622,127,127,128,127,125,126,128,127,0
11626,126,126,127,127,129,127,127,128,0
11629,127,129,127,125,130,129,128,128,0
11633,126,129,128,127,130,127,128,128,0
11636,127,128,130,125,124,126,129,127,0
11640,127,128,127,126,129,127,128,128,0
11643,126,128,127,127,128,128,128,128,0
11649,126,128,128,128,124,125,125,127,0
11652,130,127,127,130,128,128,123,125,0
11656,129,127,128,130,127,124,132,129,0
11659,127,128,126,128,128,131,129,128,0
11662,126,128,127,128,128,127,129,128,0
11666,127,127,128,128,127,128,129,128,0
11669,127,128,127,129,131,128,128,127,0
11673,128,129,128,129,127,129,128,128,0
11676,128,128,127,127,128,127,127,128,0
11679,128,128,129,125,129,128,129,128,0
11683,127,127,130,127,128,127,127,128,0
11686,129,128,129,127,129,128,128,127,0
11693,128,128,129,126,127,125,128,127,0
11699,126,127,129,130,128,127,123,126,0
11704,132,127,129,131,129,128,124,127,0
11708,128,128,127,127,130,128,129,128,0
11711,127,129,130,127,129,127,130,128,0
11715,129,126,128,126,129,127,128,128,0
11718,127,128,128,127,127,127,128,128,0
11722,126,128,128,128,129,128,128,128,0
11728,126,128,128,128,125,127,127,127,0
11732,127,128,128,125,127,127,128,127,0
11735,127,127,128,128,122,128,128,127,0
11739,127,127,129,127,128,129,128,128,0
11742,128,127,129,128,124,128,127,126,0
11745,124,127,128,126,126,127,122,126,0
11749,131,127,128,130,128,128,122,126,0
11752,129,127,129,128,127,130,129,128,0
11755,127,128,127,125,127,129,128,128,0
11758,129,125,128,127,128,128,129,128,0
11762,127,126,128,127,128,128,129,128,0
11765,127,128,128,128,128,130,128,127,0
11769,127,128,127,127,129,129,128,128,0
11774,127,125,129,129,129,129,123,126,0
11778,130,127,127,130,130,129,124,127,0
11781,127,128,127,127,131,130,131,129,0
11783,126,129,129,128,128,127,128,128,0
11788,126,128,129,127,128,126,129,128,0
11791,129,128,127,127,130,127,129,128,0
11805,127,128,128,126,127,128,129,128,0
11809,127,128,127,128,128,128,127,128,0
11813,128,128,127,128,127,126,128,128,0
11818,126,126,128,126,125,126,127,127,0
11822,127,128,128,129,126,128,127,128,0
11827,128,128,128,128,124,126,127,127,0
11831,128,128,128,126,125,125,122,126,0
11834,130,127,127,130,128,127,122,126,0
11837,129,127,129,127,130,129,129,128,0
11840,127,129,127,125,127,127,128,128,0
11846,127,128,127,127,129,127,129,127,0
11850,127,128,127,128,126,128,125,127,0
11852,129,127,128,128,124,129,131,128,0
11855,127,129,128,127,129,128,129,128,0
11859,127,128,128,126,128,129,128,129,0
11864,127,128,127,126,129,127,128,128,0
11868,127,128,127,127,128,128,128,128,0
11871,127,128,126,128,126,128,128,127,0
11875,128,127,128,129,128,126,129,128,0
11878,126,127,126,126,127,124,124,126,0
11881,129,127,126,131,128,128,126,128,0
11885,128,129,128,127,126,127,128,128,0
11888,128,128,127,127,127,127,128,128,0
11892,126,127,128,125,128,128,128,128,0
11897,128,127,128,127,127,128,128,128,0
11901,127,128,126,129,127,128,128,128,0
11906,127,128,127,127,127,126,128,127,0
11910,126,127,128,131,129,128,122,126,0
11913,129,127,127,130,127,126,126,128,0
11917,128,128,128,126,128,129,129,128,0
11920,127,128,128,127,128,127,130,128,0
11924,126,127,127,125,128,127,129,129,0
11934,128,127,127,126,129,128,129,127,0
11939,128,128,128,127,128,128,129,128,0
11946,127,129,127,127,128,127,128,128,0
11953,128,127,128,126,124,125,128,128,0
11959,126,127,128,129,127,127,125,126,0
11963,129,127,127,131,128,128,127,128,0
11966,128,129,127,128,129,128,128,128,0
11969,127,128,128,127,129,126,124,126,0
11973,130,127,128,131,130,129,123,127,0
11978,128,125,130,125,130,130,129,128,0
11982,128,129,127,125,128,129,128,128,0
11985,127,128,129,127,129,128,129,129,0
11989,127,127,127,126,128,128,128,128,0
11992,128,128,127,127,127,127,128,128,0
11995,126,128,127,126,128,127,129,128,0
11999,127,126,127,130,127,128,123,127,0
12002,128,126,128,130,128,127,125,128,0
12005,128,127,127,127,130,132,129,129,0
12047,126,128,127,127,128,131,131,129,0
12056,126,128,127,125,128,128,129,129,0
12063,129,128,128,125,127,128,128,128,0
12067,127,128,128,126,128,128,129,128,0
12072,127,128,127,128,128,127,129,128,0
12079,126,128,127,129,122,125,129,127,0
12119,125,125,128,130,128,129,123,126,0
12128,128,126,124,128,129,129,129,128,0
12133,126,129,127,127,128,128,128,128,0
12139,127,128,129,128,121,127,129,128,0
12144,126,128,129,127,126,128,128,128,0
12187,126,128,128,127,127,129,127,128,0
12201,127,128,127,128,126,128,128,128,0
12207,127,129,128,127,126,125,122,126,0
12252,130,127,127,131,128,129,123,126,0
12262,130,127,127,129,129,132,130,128,0
12269,127,129,127,129,131,130,129,128,0
12276,127,128,127,128,129,128,128,128,0
12283,127,128,128,128,128,128,129,128,0
12322,127,127,127,126,129,127,127,128,0
12333,127,128,127,129,129,127,128,128,0
12341,128,128,128,128,124,127,128,127,0
12347,126,126,127,130,130,128,123,126,0
12352,130,127,129,129,127,125,129,128,0
12358,128,128,127,127,131,129,129,128,0
12364,127,127,127,127,131,130,129,128,0
12369,127,127,130,127,128,126,129,128,0
12373,127,128,127,129,128,127,128,127,0
12377,127,127,128,126,127,127,129,128,0
12381,128,128,127,128,126,123,129,128,0
12384,127,127,127,127,127,125,123,126,0
12387,129,127,127,130,128,130,124,127,0
12391,127,129,126,125,128,129,129,127,0
12394,127,129,127,127,127,127,129,128,0
12398,127,127,127,127,129,126,129,129,0
12401,126,127,127,128,129,129,128,127,0
12404,128,128,126,127,126,128,128,129,0
12407,127,128,127,128,128,127,128,128,0
12410,127,127,128,128,128,124,128,127,0
12414,126,126,128,131,129,128,121,126,0
12418,130,127,127,129,127,129,128,129,0
12422,129,128,126,128,128,128,129,128,0
12426,127,127,129,128,127,127,130,128,0
12431,127,127,128,127,128,127,128,128,0
12436,129,128,127,128,128,128,128,127,0
12439,128,127,127,128,127,126,128,127,0
12442,130,126,126,131,127,128,123,126,0
12445,130,126,128,130,129,129,125,127,0
12449,130,128,128,127,127,129,130,128,0
12452,127,128,126,124,126,126,128,128,0
12455,127,127,127,124,128,129,129,128,0
12459,126,127,127,127,126,128,127,128,0
12462,127,128,128,126,127,128,127,128,0
12465,127,128,127,128,127,127,128,127,0
12468,126,127,128,126,126,126,128,128,0
12471,127,127,129,129,125,128,122,126,0
12523,130,127,128,126,127,129,128,127,0
12538,128,128,128,126,128,128,129,127,0
12554,127,127,128,127,127,127,128,127,0
12564,127,127,130,126,127,128,128,127,0
12572,128,127,128,127,128,128,128,127,0
12588,126,127,127,128,127,128,128,128,0
12593,127,126,128,128,126,126,129,126,0
12598,128,127,127,131,128,128,123,126,0
12601,129,127,128,131,125,128,130,128,0
12605,126,127,129,128,128,128,130,127,0
12608,127,127,127,127,130,127,129,128,0
12611,127,126,128,128,126,126,129,128,0
12615,127,127,127,127,127,129,129,128,0
12618,127,127,127,127,127,128,128,128,0
12623,127,128,128,128,120,124,129,128,0
12633,127,128,128,129,126,127,127,128,0
12628,126,127,128,126,125,127,127,128,0
12636,128,129,128,128,127,128,127,128,0
12640,127,127,128,130,129,127,123,126,0
12643,129,126,127,130,128,129,124,126,0
12646,130,127,128,128,123,129,131,128,0
12654,126,128,126,127,129,130,129,128,0
12658,127,129,126,127,128,126,128,127,0
12662,128,128,127,127,129,128,130,128,0
12665,123,129,128,126,127,128,129,127,0
12668,128,129,127,128,126,128,128,128,0
12672,128,128,127,127,125,124,128,128,0
12675,127,128,129,126,128,125,128,128,0
12678,128,127,127,130,126,127,124,126,0
12681,128,127,126,126,129,129,129,128,0
