Start Recording
7,132,126,132,132,131,126,129,128,0
15,132,128,127,126,127,129,128,128,0
19,126,129,126,125,126,129,129,128,0
22,125,128,127,125,126,130,129,129,0
25,127,128,126,126,127,126,128,128,0
29,128,130,125,127,126,127,128,128,0
33,130,127,125,126,126,129,128,128,0
36,126,129,126,129,130,122,126,125,0
52,132,125,133,132,130,121,125,126,0
57,127,128,129,127,129,128,129,128,0
60,126,129,124,126,125,129,128,128,0
64,129,127,128,130,130,121,126,125,0
67,130,125,132,132,130,126,129,128,0
70,125,130,125,126,127,128,128,128,0
74,128,128,127,125,126,131,128,129,0
77,127,128,127,127,127,130,128,129,0
80,124,126,128,129,127,128,128,127,0
90,127,127,127,130,129,127,128,128,0
95,131,126,125,126,128,129,129,130,0
99,125,131,124,128,129,122,125,125,0
102,130,126,133,131,130,122,127,128,0
106,127,128,126,126,127,128,128,128,0
109,127,128,128,126,126,130,128,128,0
112,131,124,129,127,127,131,128,130,0
116,122,130,127,125,128,128,128,128,0
119,126,129,125,127,126,128,128,127,0
122,133,127,128,127,127,129,127,128,0
125,127,128,127,126,127,130,129,129,0
128,125,128,126,126,127,129,126,128,0
131,127,127,126,128,129,128,127,127,0
134,128,129,125,127,127,126,128,127,0
139,125,128,128,128,128,130,128,128,0
144,126,126,132,133,131,122,125,125,0
147,132,125,129,127,126,128,127,128,0
150,131,127,128,127,126,129,126,127,0
154,130,125,129,130,128,126,127,126,0
156,127,127,128,129,129,126,126,125,0
159,130,129,127,126,127,129,128,127,0
167,129,127,129,128,129,129,130,128,0
170,125,129,123,126,126,130,128,128,0
173,126,128,127,126,126,129,129,128,0
176,126,128,125,126,128,127,128,128,0
178,126,128,127,127,127,128,127,127,0
181,127,128,126,125,127,130,129,127,0
184,126,128,127,125,126,129,129,127,0
187,125,128,127,129,128,126,127,128,0
190,128,127,127,127,127,127,128,128,0
195,128,128,130,133,130,122,125,125,0
209,131,126,132,130,130,122,125,124,0
213,129,127,128,127,130,127,129,128,0
218,127,127,126,127,127,127,129,129,0
222,128,129,123,126,126,130,129,126,0
225,127,127,129,129,128,125,126,126,0
229,129,126,127,126,126,129,128,128,0
232,128,128,127,126,126,129,128,129,0
234,126,128,127,128,126,130,126,125,0
238,127,127,127,130,127,125,125,126,0
245,127,128,128,125,128,128,127,128,0
251,126,127,130,129,129,129,128,129,0
254,130,128,126,125,128,129,129,128,0
259,127,129,127,126,125,129,128,128,0
265,126,128,126,127,127,128,126,127,0
268,129,127,129,129,128,129,126,127,0
270,129,127,130,127,126,130,127,128,0
273,126,128,130,132,130,122,125,125,0
276,132,125,132,132,129,124,128,128,0
279,126,128,125,126,129,127,128,128,0
282,127,128,123,126,126,129,128,128,0
285,127,128,126,125,125,131,129,128,0
288,127,124,129,131,129,129,127,128,0
291,128,127,130,129,129,126,129,128,0
294,126,129,124,127,128,129,129,129,0
297,123,128,127,128,129,121,126,125,0
299,132,125,132,131,128,129,128,127,0
303,128,127,130,128,129,128,129,128,0
317,129,128,124,126,127,130,128,129,0
321,126,130,127,126,126,131,128,128,0
324,125,128,128,126,127,129,128,128,0
327,127,128,126,128,128,126,128,128,0
330,129,128,128,128,128,129,128,129,0
333,125,128,126,128,127,129,129,128,0
336,130,124,134,132,130,122,124,124,0
339,129,127,126,127,129,127,129,128,0
353,127,129,126,127,126,128,127,128,0
357,126,129,124,126,126,128,126,125,0
360,131,124,134,132,131,122,125,127,0
363,130,126,127,127,126,129,128,128,0
367,126,127,129,128,128,128,129,129,0
370,128,128,124,125,127,129,129,129,0
374,127,128,125,125,126,128,127,127,0
378,131,128,126,126,126,128,127,127,0
383,129,127,129,126,126,129,127,128,0
387,128,129,127,130,131,124,125,125,0
390,130,126,131,132,131,122,126,125,0
393,127,126,128,125,128,129,127,128,0
396,128,126,128,127,128,129,128,128,0
399,126,128,125,125,127,130,128,128,0
403,125,126,131,131,130,122,125,125,0
406,128,129,127,126,127,128,127,128,0
409,129,128,127,127,126,130,127,128,0
412,125,127,124,125,128,129,129,127,0
416,125,128,127,125,127,130,128,128,0
419,125,128,126,129,129,127,127,127,0
423,125,127,128,128,128,128,129,129,0
426,126,129,124,127,127,129,128,128,0
441,125,129,127,127,127,128,125,125,0
445,132,126,133,132,129,126,128,128,0
448,129,128,127,126,126,129,127,126,0
452,128,127,128,126,125,128,128,128,0
455,127,128,126,127,127,128,126,124,0
459,132,125,132,132,128,128,129,128,0
463,125,127,124,126,129,127,129,129,0
467,126,130,125,125,127,130,128,128,0
470,127,128,126,126,126,130,128,129,0
473,127,129,128,127,126,129,126,127,0
479,127,128,126,127,128,127,129,128,0
482,126,129,125,127,127,129,128,128,0
485,129,126,128,132,129,123,125,125,0
488,132,125,132,132,131,124,129,128,0
491,129,128,124,126,128,127,128,129,0
495,131,128,130,126,126,130,128,129,0
500,125,128,128,126,126,131,128,128,0
503,126,127,129,128,128,127,128,127,0
513,126,128,126,128,127,127,128,128,0
518,128,126,128,128,127,128,127,127,0
521,128,124,133,131,129,122,126,124,0
526,134,123,132,131,129,127,128,128,0
529,129,128,124,126,127,129,128,128,0
533,128,126,130,127,128,130,130,128,0
536,124,128,127,127,125,126,126,126,0
540,128,127,130,130,128,129,128,127,0
549,130,128,130,128,127,129,127,128,0
553,127,126,128,126,126,129,129,129,0
556,127,127,130,127,126,131,127,128,0
561,126,129,127,126,128,127,128,128,0
565,128,129,124,127,129,127,127,128,0
568,127,128,126,127,128,129,128,129,0
571,128,126,133,132,130,124,125,124,0
574,133,124,132,132,130,124,126,128,0
577,126,127,130,126,127,129,128,128,0
581,128,128,128,128,128,130,129,128,0
584,127,129,128,127,127,131,129,129,0
587,122,130,125,127,126,128,128,127,0
590,126,127,131,127,128,128,128,128,0
593,128,126,126,128,128,129,128,128,0
596,128,125,130,130,129,121,126,125,0
599,131,125,132,132,130,123,125,128,0
602,126,129,124,128,127,129,128,128,0
604,125,126,129,126,127,130,127,128,0
607,126,128,126,128,126,130,129,129,0
620,123,129,128,126,126,130,127,128,0
625,127,128,130,129,129,128,127,128,0
627,128,126,127,129,128,128,128,128,0
630,128,128,128,127,126,130,129,129,0
633,126,128,126,126,127,129,128,127,0
636,127,128,128,128,129,127,127,128,0
639,127,129,128,129,128,127,128,129,0
643,126,129,127,131,130,120,126,125,0
655,132,123,133,133,130,122,125,125,0
659,130,127,127,128,129,127,129,128,0
663,125,128,127,128,127,128,129,128,0
666,127,128,124,128,127,131,128,128,0
669,128,128,125,126,125,130,128,127,0
673,131,125,130,129,129,127,128,129,0
676,123,131,124,127,128,127,129,128,0
679,126,129,127,126,128,130,127,128,0
693,124,128,127,130,131,121,125,125,0
697,130,124,130,130,127,129,127,127,0
702,127,128,129,129,128,128,129,129,0
705,125,128,124,125,126,129,128,129,0
709,130,125,135,132,130,122,126,125,0
712,130,126,128,128,128,130,128,128,0
716,127,128,127,128,129,128,129,129,0
719,125,128,126,128,127,130,128,129,0
722,124,128,126,124,126,129,129,129,0
725,128,128,128,127,126,128,126,127,0
729,128,127,129,128,127,129,128,128,0
732,128,127,128,126,127,130,127,127,0
735,126,129,126,128,126,130,128,129,0
743,127,128,129,127,126,127,128,128,0
747,130,129,126,127,128,126,128,128,0
750,130,128,125,126,125,126,125,125,0
753,128,125,131,132,130,122,126,125,0
755,130,125,132,132,128,128,129,128,0
759,124,127,126,128,128,127,128,128,0
762,126,128,124,126,125,128,128,128,0
764,127,129,125,124,126,130,128,128,0
777,126,129,126,126,126,129,127,126,0
781,131,126,130,127,128,128,126,128,0
784,129,126,128,128,127,129,126,128,0
787,124,128,127,125,127,128,125,126,0
791,129,125,132,133,130,121,125,126,0
794,129,129,130,126,129,129,128,129,0
798,126,127,126,128,128,130,129,129,0
801,127,128,124,126,126,131,128,128,0
804,127,129,129,126,128,128,125,126,0
807,128,128,127,127,127,128,128,127,0
810,130,127,126,128,128,129,129,129,0
814,124,129,128,127,126,130,127,125,0
817,129,125,133,133,131,121,125,126,0
820,127,127,126,128,129,127,130,128,0
836,130,128,125,126,127,129,129,129,0
840,127,129,129,131,129,121,126,125,0
843,131,126,133,131,130,121,126,128,0
846,127,129,124,127,129,128,129,129,0
850,124,130,124,124,127,128,128,129,0
854,126,129,126,125,125,131,128,128,0
857,125,127,126,125,127,128,128,128,0
861,128,128,125,127,126,127,127,127,0
873,130,124,131,128,126,129,126,127,0
877,127,130,127,125,127,130,127,129,0
880,126,128,125,126,128,122,125,125,0
883,131,126,129,128,127,129,126,128,0
887,129,127,130,128,127,130,127,127,0
891,129,127,129,126,127,126,125,124,0
894,132,126,131,132,131,123,126,126,0
898,126,127,129,126,127,127,129,129,0
902,125,129,127,128,128,128,130,129,0
905,126,129,125,125,126,130,130,129,0
909,124,129,125,126,126,128,127,128,0
913,127,129,125,127,127,126,128,127,0
920,132,126,126,127,127,129,128,129,0
923,125,130,127,127,127,129,128,128,0
925,126,128,126,126,126,130,127,128,0
929,129,128,125,128,128,127,128,128,0
945,128,129,128,128,128,127,128,129,0
948,125,129,126,126,128,129,129,128,0
954,127,128,126,126,127,129,127,127,0
958,125,127,128,129,128,126,128,128,0
963,126,127,127,128,129,126,128,127,0
967,129,128,129,133,131,122,125,125,0
973,132,124,134,132,131,121,127,126,0
976,132,125,133,129,129,127,130,129,0
979,125,129,125,126,128,129,128,128,0
983,130,128,125,126,127,129,130,129,0
986,126,129,126,129,126,125,126,126,0
989,129,127,129,127,126,129,127,128,0
993,131,127,127,127,127,129,127,128,0
997,127,125,129,126,126,128,129,129,0
1003,124,130,129,131,128,121,125,124,0
1006,132,124,130,128,128,129,129,128,0
1009,127,128,129,127,128,130,128,128,0
1012,131,125,129,125,126,130,129,128,0
1015,125,129,126,127,126,130,130,129,0
1018,126,129,127,127,126,128,127,127,0
1022,128,127,128,128,127,128,126,128,0
1025,126,128,129,127,127,129,128,128,0
1030,127,126,127,126,125,129,126,126,0
1033,130,126,132,133,130,124,126,128,0
1036,127,129,126,127,127,129,128,127,0
1039,128,127,129,128,128,129,128,127,0
1041,127,128,129,130,130,123,125,125,0
1044,130,125,133,132,128,129,128,128,0
1047,128,129,128,128,127,129,128,128,0
1049,126,128,129,128,128,128,128,129,0
1052,125,129,125,124,126,132,128,129,0
1055,125,129,125,126,126,129,127,128,0
1059,127,129,127,127,127,128,127,127,0
1062,128,128,127,127,127,129,128,128,0
1064,125,129,127,127,126,130,126,129,0
1072,126,128,128,128,127,127,127,128,0
1075,128,127,128,128,128,127,128,127,0
1079,126,129,126,128,128,129,129,126,0
1082,127,128,126,128,128,121,125,126,0
1085,132,125,132,131,129,120,125,126,0
1098,128,128,125,125,127,127,128,128,0
1103,131,127,127,127,125,129,127,128,0
1107,128,129,126,126,125,129,126,128,0
1112,125,129,127,126,126,128,128,127,0
1118,128,126,127,128,127,127,129,127,0
1121,131,128,127,126,129,129,128,129,0
1124,123,129,128,132,130,123,125,125,0
1127,131,125,133,132,131,121,126,125,0
1131,126,128,129,125,126,129,128,128,0
1134,126,128,125,128,128,127,130,128,0
1137,125,129,126,127,127,131,126,126,0
1140,129,126,133,132,130,122,126,125,0
1143,124,126,125,127,128,127,129,127,0
1146,129,127,127,125,127,129,128,128,0
1149,125,129,126,127,127,130,128,129,0
1152,123,129,125,127,127,130,128,129,0
1154,127,128,125,126,127,128,128,128,0
1157,128,128,130,128,127,129,127,128,0
1169,126,128,125,125,127,130,128,128,0
1173,125,129,124,125,127,129,128,128,0
1176,128,128,126,127,126,127,126,127,0
1180,130,126,129,128,127,127,128,128,0
1183,125,128,124,127,130,121,126,125,0
1186,132,125,131,132,130,121,126,125,0
1189,132,126,126,128,130,129,129,128,0
1194,124,129,126,126,128,129,129,129,0
1203,124,129,124,125,127,129,130,129,0
1207,124,127,127,125,127,126,125,126,0
1211,127,128,125,126,128,126,129,128,0
1215,126,128,124,127,127,127,128,128,0
1219,129,129,125,126,126,129,127,129,0
1223,125,129,126,126,127,130,128,128,0
1230,125,129,126,128,127,126,128,128,0
1233,127,129,125,127,127,127,128,127,0
1238,127,130,126,127,126,130,127,126,0
1244,130,124,134,133,130,122,125,125,0
1247,132,125,134,131,127,127,131,129,0
1250,126,129,125,126,127,128,128,128,0
1253,130,129,126,126,125,131,127,128,0
1256,127,126,129,130,127,125,126,126,0
1260,127,127,129,130,126,130,127,128,0
1263,128,128,127,127,126,129,128,127,0
1266,134,126,125,126,126,131,129,129,0
1269,127,128,127,125,126,131,128,129,0
1274,126,129,127,127,129,128,128,128,0
1282,125,129,125,127,129,126,128,127,0
1288,128,129,124,127,126,127,127,129,0
1291,126,128,126,126,127,130,128,128,0
1294,129,125,127,127,128,127,129,128,0
1298,127,129,126,127,128,127,128,128,0
1301,126,129,126,127,126,129,127,128,0
1305,126,129,128,132,130,122,126,125,0
1308,132,125,133,132,130,121,125,124,0
1312,126,127,126,127,128,127,129,128,0
1314,128,128,130,126,127,130,128,125,0
1332,130,126,129,129,128,125,125,125,0
1338,129,124,133,131,130,122,126,129,0
1342,127,128,124,127,129,128,129,128,0
1345,127,128,124,127,127,128,131,130,0
1349,123,131,124,123,125,130,128,128,0
1354,123,127,129,127,126,130,128,127,0
1359,127,125,129,129,129,129,127,128,0
1364,126,129,125,125,127,127,129,128,0
1368,128,128,125,125,125,129,127,129,0
1371,129,126,134,132,130,123,123,126,0
1375,124,128,127,128,128,126,127,128,0
1378,126,128,125,126,128,129,128,128,0
1381,126,127,126,125,126,131,128,128,0
1385,133,128,128,127,126,130,127,128,0
1388,127,129,126,127,127,129,127,128,0
1391,126,128,131,129,128,128,127,129,0
1394,126,127,126,126,126,130,127,128,0
1397,125,127,127,128,128,129,128,126,0
1400,128,128,127,128,127,127,127,128,0
1404,126,128,128,128,127,129,127,128,0
1406,129,127,128,128,128,123,124,125,0
1409,134,124,132,132,130,122,126,125,0
1413,130,125,126,128,128,126,130,128,0
1417,127,129,125,125,126,128,128,128,0
1420,131,127,126,124,127,130,126,125,0
1423,131,126,134,131,130,123,126,125,0
1426,129,126,127,127,128,128,129,129,0
1429,126,128,128,128,130,128,129,129,0
1431,126,129,123,124,126,130,127,128,0
1434,127,129,127,125,126,130,127,129,0
1437,128,130,126,127,126,129,127,128,0
1439,126,127,130,129,129,129,129,128,0
1454,126,129,124,126,125,130,128,128,0
1458,125,127,127,126,126,130,125,125,0
1461,131,126,131,131,128,127,128,128,0
1466,126,128,127,129,128,129,127,128,0
1472,128,127,126,125,127,130,129,129,0
1478,128,125,133,131,129,123,126,125,0
1481,133,125,132,130,127,130,128,127,0
1485,129,128,126,128,128,128,129,127,0
1488,125,129,126,128,126,131,127,128,0
1491,125,127,126,128,129,125,126,126,0
1495,128,126,129,125,128,128,128,127,0
1498,127,128,127,127,126,129,128,128,0
1501,127,127,130,125,127,130,129,127,0
1504,127,126,126,125,125,130,126,127,0
1508,124,129,126,126,127,127,128,128,0
1511,128,128,130,127,129,127,129,128,0
1514,132,126,125,127,127,130,127,127,0
1517,130,127,130,130,127,126,126,126,0
1519,128,127,129,130,126,128,128,128,0
1526,126,127,128,129,128,128,128,128,0
1530,126,127,124,125,128,129,128,129,0
1534,130,126,128,130,129,121,126,126,0
1538,132,126,134,132,128,129,129,130,0
1543,124,129,126,128,128,129,127,127,0
1546,129,129,127,127,126,131,128,128,0
1549,125,128,127,128,127,130,128,128,0
1553,124,129,126,125,126,128,128,127,0
1563,132,127,127,127,128,128,127,128,0
1567,125,128,127,129,129,129,128,127,0
1571,126,129,128,126,127,128,128,129,0
1574,123,128,130,132,131,122,124,125,0
1578,127,128,126,125,128,128,127,128,0
1581,125,129,124,126,128,128,128,128,0
1584,128,129,125,129,128,125,126,126,0
1588,130,127,132,131,131,121,125,127,0
1592,129,126,130,127,127,129,127,127,0
1596,131,129,128,127,127,130,128,128,0
1600,126,128,127,125,127,129,128,129,0
1607,124,127,130,131,128,125,125,126,0
1610,128,128,131,129,127,128,128,129,0
1614,129,126,126,127,127,129,128,128,0
1617,131,129,126,124,128,130,129,129,0
1620,126,127,129,130,129,125,126,126,0
1624,128,128,125,126,128,126,128,128,0
1627,129,127,126,126,126,129,128,128,0
1631,127,130,124,126,127,130,128,129,0
1640,125,129,127,127,126,130,127,126,0
1645,130,127,128,127,128,126,129,128,0
1648,128,128,125,127,128,128,128,128,0
1651,126,129,125,126,127,128,129,126,0
1654,131,125,133,131,129,121,126,125,0
1657,133,124,130,126,125,128,128,127,0
1660,127,129,127,125,127,128,128,128,0
1664,127,128,126,125,127,131,128,128,0
1676,124,128,126,125,129,130,128,129,0
1680,126,127,126,127,128,125,129,128,0
1683,128,129,125,127,127,128,127,128,0
1687,127,129,126,130,129,121,124,124,0
1690,132,123,134,132,130,123,126,125,0
1694,131,127,125,125,126,128,127,127,0
1697,132,127,126,126,125,129,128,127,0
1700,125,127,126,127,127,130,129,129,0
1704,123,128,129,130,128,124,126,126,0
1707,127,127,129,128,128,127,130,128,0
1711,129,129,125,126,126,128,128,127,0
1717,134,127,126,125,126,131,128,128,0
1723,124,130,129,128,127,125,126,126,0
1727,127,127,127,129,130,127,128,128,0
1731,129,127,125,126,127,127,128,128,0
1734,129,128,125,125,125,130,128,128,0
1737,126,130,125,126,125,130,128,129,0
1741,124,129,126,127,129,126,129,128,0
1744,126,128,125,127,127,128,128,127,0
1747,130,127,127,126,126,129,127,128,0
1751,128,129,126,126,129,121,125,124,0
1759,131,126,132,133,130,124,127,128,0
1763,128,127,128,127,127,128,128,127,0
1766,130,128,127,127,126,131,127,128,0
1770,126,128,125,126,125,130,128,129,0
1773,125,127,128,127,127,128,127,128,0
1777,130,128,126,129,127,128,128,128,0
1780,125,129,126,127,127,129,127,128,0
1783,124,129,128,132,129,122,125,125,0
1786,132,124,133,132,130,122,125,128,0
1789,128,126,125,127,126,128,127,128,0
1793,127,129,128,128,128,130,130,129,0
1797,127,128,126,125,125,130,128,126,0
1800,129,127,132,132,131,122,126,128,0
1803,125,128,124,128,128,127,129,128,0
1805,128,129,127,126,126,130,127,128,0
1808,127,128,129,125,126,130,128,129,0
1811,124,129,127,124,126,126,128,129,0
1814,127,128,126,126,126,127,126,127,0
1817,127,128,129,128,127,128,126,127,0
1831,128,127,131,131,130,121,125,124,0
1836,134,123,133,132,130,121,125,125,0
1839,124,128,127,128,128,128,128,128,0
1844,126,128,126,128,128,128,129,128,0
1849,128,129,124,125,124,130,128,129,0
1854,123,127,129,130,129,124,125,128,0
1861,125,128,127,126,129,126,128,128,0
1866,127,129,123,126,127,128,128,128,0
1870,127,129,126,125,127,129,129,127,0
1873,130,127,126,126,127,130,129,129,0
1876,124,128,125,126,129,126,129,127,0
1879,127,128,126,127,127,128,128,128,0
1883,128,128,125,126,127,129,128,127,0
1886,132,125,132,131,130,122,125,125,0
1890,130,125,126,127,128,126,129,129,0
1894,127,129,124,125,127,128,127,128,0
1903,127,128,127,127,126,131,129,128,0
1906,126,128,127,126,127,130,129,128,0
1909,128,129,126,127,128,126,129,128,0
1912,127,128,126,127,128,128,127,128,0
1916,128,128,125,127,128,129,127,127,0
1919,130,124,132,132,130,121,126,125,0
1922,132,125,129,129,131,126,129,129,0
1925,125,128,125,126,126,128,128,128,0
1929,128,127,126,127,127,129,128,129,0
1932,126,126,130,132,131,121,127,125,0
1940,133,126,127,128,127,128,129,128,0
1945,127,125,127,128,126,129,129,127,0
1948,130,126,126,126,127,130,129,130,0
1954,122,131,124,123,126,131,128,127,0
1957,129,128,129,129,128,129,128,127,0
1961,127,129,125,126,129,126,129,127,0
1964,124,129,127,129,127,129,128,128,0
1967,122,128,133,131,129,123,125,125,0
1971,131,125,132,130,125,130,128,127,0
1977,127,128,127,126,126,129,127,128,0
1980,130,128,126,126,125,131,127,127,0
1984,130,125,126,125,126,130,128,128,0
1987,128,128,128,126,129,127,126,129,0
1991,126,128,126,128,128,127,128,128,0
1994,129,128,124,127,128,130,129,127,0
1997,127,128,128,131,129,122,126,125,0
2001,130,125,132,131,128,128,127,128,0
2004,127,128,127,126,127,130,128,128,0
2007,126,126,128,129,127,130,127,128,0
2017,133,127,129,124,127,130,128,129,0
2021,123,129,127,126,128,126,128,127,0
2025,131,127,125,126,127,128,128,128,0
2027,126,131,126,126,126,130,127,128,0
2030,124,130,125,128,127,128,125,125,0
2035,131,125,131,132,131,122,126,126,0
2038,130,126,128,126,128,130,127,128,0
2041,126,127,127,127,126,131,128,128,0
2054,126,129,126,128,126,131,127,128,0
2058,124,130,126,126,125,128,127,127,0
2061,129,127,131,128,129,127,126,128,0
2065,127,127,130,127,128,129,127,127,0
2068,126,128,126,126,128,121,125,126,0
2071,131,125,133,132,130,120,125,125,0
2074,127,128,128,128,128,127,129,129,0
2078,127,128,124,125,130,128,128,128,0
2081,126,129,125,124,126,130,129,127,0
2084,129,125,134,131,130,120,124,124,0
2087,130,128,126,127,126,127,128,128,0
2092,129,126,127,126,126,130,128,128,0
2095,129,126,129,128,125,130,128,128,0
2103,129,128,128,125,128,128,128,128,0
2106,128,126,128,127,127,129,127,127,0
2110,125,128,131,127,126,130,126,128,0
2113,126,128,126,126,127,131,126,125,0
2116,129,126,132,131,130,122,126,124,0
2120,129,125,129,128,128,128,129,128,0
2126,126,128,127,126,127,127,130,129,0
2129,126,128,125,126,126,130,128,129,0
2133,125,129,127,127,126,130,127,128,0
2136,127,127,128,130,129,127,128,128,0
2139,125,128,124,127,126,127,127,128,0
2142,128,127,126,127,126,128,126,127,0
2146,127,126,134,132,130,122,126,125,0
2149,132,126,127,129,128,128,129,129,0
2162,126,129,125,126,126,127,128,129,0
2167,124,129,126,126,125,130,127,129,0
2172,125,129,127,125,127,129,129,127,0
2176,133,127,128,126,128,128,128,128,0
2180,124,129,125,128,127,127,127,127,0
2183,128,127,126,126,126,128,128,128,0
2186,128,127,130,133,130,123,125,125,0
2189,131,126,132,130,128,127,129,128,0
2197,125,128,130,129,129,128,128,128,0
2201,125,129,124,128,127,129,128,125,0
2204,134,125,129,129,129,127,126,126,0
2208,128,128,127,125,127,129,128,128,0
2211,129,127,128,129,128,128,128,128,0
2214,125,126,130,126,127,130,129,127,0
2218,125,128,129,128,126,131,128,127,0
2221,127,126,127,126,127,128,127,126,0
2234,127,128,129,129,128,127,128,128,0
2239,125,127,125,127,127,130,127,128,0
2243,127,128,126,126,127,130,126,125,0
2246,134,124,133,132,131,122,125,127,0
2249,127,128,126,128,128,126,129,127,0
2252,129,128,124,126,126,130,129,128,0
2256,127,129,127,125,126,131,126,124,0
2260,130,126,132,132,130,123,126,128,0
2263,127,128,129,126,127,128,128,128,0
2266,129,126,125,125,127,128,129,129,0
2271,124,131,125,125,126,130,126,125,0
2274,128,126,131,132,131,124,127,128,0
2278,127,127,125,125,128,127,129,128,0
2281,128,129,125,126,127,130,129,129,0
2284,125,129,128,125,126,131,126,126,0
2287,128,127,129,130,128,128,128,127,0
2291,127,127,127,129,128,126,128,128,0
2294,125,127,127,128,127,129,129,129,0
2297,128,126,125,125,127,131,128,129,0
2308,127,128,125,125,127,128,129,129,0
2312,128,129,125,127,128,126,128,128,0
2315,128,128,124,127,129,129,129,127,0
2318,129,128,126,128,126,130,128,128,0
2322,128,125,131,132,130,122,124,125,0
2325,132,125,129,129,128,129,128,128,0
2328,126,129,130,129,127,129,128,127,0
2331,127,127,128,130,130,123,126,124,0
2335,131,127,133,131,130,122,126,129,0
2338,123,130,125,127,128,127,129,129,0
2350,125,128,125,125,126,130,127,128,0
2354,127,126,128,125,125,131,127,128,0
2358,125,128,126,124,126,128,128,128,0
2363,132,128,126,127,128,127,128,128,0
2368,130,128,126,126,126,129,128,128,0
2371,125,126,129,126,125,129,128,128,0
2375,125,129,127,125,127,129,128,128,0
2378,124,129,125,129,127,126,128,127,0
2386,129,128,126,129,127,128,127,128,0
2390,128,127,126,126,128,123,125,126,0
2394,128,126,131,132,130,122,126,125,0
2397,131,124,127,128,129,129,129,128,0
2401,128,128,125,127,127,128,128,128,0
2404,126,129,126,126,125,130,127,128,0
2408,125,126,130,129,128,125,125,126,0
2411,126,127,129,126,127,127,129,129,0
2414,127,129,124,126,128,127,129,129,0
2417,127,128,125,126,126,130,128,128,0
2421,126,129,130,131,131,122,126,125,0
2431,129,126,132,130,127,129,127,128,0
2434,130,126,128,129,128,129,129,128,0
2438,125,128,125,125,127,129,130,127,0
2441,124,128,129,126,127,130,128,127,0
2445,128,125,128,127,127,127,128,128,0
2448,126,129,127,128,128,128,128,129,0
2451,125,127,126,126,128,128,128,128,0
2454,125,127,126,127,125,127,126,124,0
2457,133,124,131,132,129,126,129,128,0
2460,131,127,126,126,127,129,128,128,0
2464,128,128,128,127,126,130,127,128,0
2467,124,128,129,130,130,122,126,126,0
2470,129,125,133,132,128,128,128,128,0
2482,127,128,125,127,127,128,128,128,0
2487,132,127,128,125,127,129,129,129,0
2493,124,130,125,126,126,130,129,129,0
2500,127,127,130,128,127,128,128,127,0
2504,129,127,131,127,127,130,128,127,0
2507,127,127,128,126,128,130,127,128,0
2510,128,127,128,127,126,129,127,129,0
2514,127,129,125,126,126,127,127,127,0
2517,129,127,129,128,128,128,128,128,0
2520,127,127,127,127,126,128,126,125,0
2523,131,126,133,132,129,123,125,124,0
2527,130,125,132,132,130,123,127,127,0
2530,131,126,125,126,128,128,128,127,0
2533,132,129,129,125,127,130,128,128,0
2536,124,129,129,128,125,131,127,128,0
2539,126,129,126,125,127,128,128,127,0
2545,134,127,128,127,127,128,127,128,0
2548,124,128,126,129,127,129,128,126,0
2551,131,125,130,131,131,122,126,126,0
2554,131,124,132,131,130,124,127,128,0
2557,126,129,127,126,127,129,128,128,0
2564,126,128,126,128,129,129,129,128,0
2568,123,126,130,125,125,130,129,129,0
2571,126,129,125,125,126,128,128,128,0
2575,126,128,126,128,127,128,128,128,0
2578,128,127,128,128,127,130,126,129,0
2581,128,127,127,126,127,130,128,129,0
2585,129,126,131,132,129,122,126,125,0
2588,129,129,124,126,129,126,129,129,0
2592,126,129,124,127,127,128,128,128,0
2614,126,129,124,126,126,129,127,128,0
2621,124,126,131,132,131,122,126,125,0
2628,132,127,126,126,127,129,128,128,0
2639,126,130,124,126,126,129,128,128,0
2644,127,129,126,128,127,131,127,129,0
2649,124,129,125,126,127,129,128,128,0
2656,130,128,127,127,126,128,127,128,0
2653,127,129,126,127,126,126,128,127,0
2659,126,128,128,128,127,129,127,129,0
2664,125,128,126,126,129,120,125,125,0
2687,130,125,132,132,129,128,126,128,0
2694,131,128,127,126,127,129,127,127,0
2700,127,126,128,126,127,129,129,129,0
2707,124,129,128,129,127,124,126,126,0
2713,129,125,130,127,127,127,128,128,0
2717,132,128,128,127,126,130,127,127,0
2755,128,128,127,126,126,129,129,129,0
2764,127,128,127,127,126,126,126,125,0
2771,130,125,130,129,129,128,128,128,0
2776,125,127,126,129,129,127,128,129,0
2781,127,128,124,127,126,129,129,129,0
2826,130,128,126,125,126,129,129,129,0
2836,128,128,126,127,129,127,129,128,0
2845,128,129,126,128,129,129,128,128,0
2892,126,128,125,126,128,129,126,128,0
2904,124,129,129,133,130,123,125,126,0
2912,131,125,132,132,130,124,129,129,0
2917,125,128,124,126,128,128,130,128,0
2923,125,128,124,125,127,129,129,128,0
2960,130,128,125,125,125,130,129,128,0
2974,126,130,126,127,127,126,128,128,0
2982,126,128,126,127,127,127,128,128,0
2990,126,129,125,126,125,128,128,129,0
2995,124,129,126,126,126,128,125,125,0
3000,132,124,133,132,131,121,125,125,0
3005,128,128,128,127,128,129,127,128,0
3009,126,127,127,128,127,128,128,126,0
3013,129,126,130,131,130,121,126,125,0
3016,133,123,131,129,126,128,128,127,0
3020,130,126,126,127,127,129,127,127,0
3023,129,127,126,128,127,131,130,129,0
3026,122,130,128,127,125,130,128,129,0
3030,122,128,124,125,127,127,128,128,0
3033,126,127,128,128,129,128,127,128,0
3036,127,129,125,126,128,128,129,128,0
3039,124,129,126,125,127,130,127,128,0
3042,126,127,128,127,128,127,129,127,0
3046,126,128,125,128,127,127,128,128,0
3049,130,128,125,127,126,128,128,127,0
3052,131,126,131,132,129,122,125,125,0
3055,131,126,132,131,129,122,125,129,0
3058,125,129,124,128,128,128,129,128,0
3061,128,128,124,127,126,128,128,128,0
3063,130,129,125,128,126,131,128,126,0
3066,124,128,127,128,127,127,129,128,0
3069,127,127,128,129,129,127,128,128,0
3072,127,127,126,128,128,128,129,128,0
3074,127,130,124,127,126,130,128,129,0
3080,125,128,128,127,126,129,127,127,0
3085,132,127,129,128,127,128,127,128,0
3092,127,128,127,127,127,129,127,127,0
3096,128,128,130,132,129,123,125,124,0
3099,133,125,133,132,130,122,125,125,0
3102,127,127,128,129,128,127,129,128,0
3104,125,128,125,125,127,127,128,128,0
3107,127,128,124,126,126,130,128,129,0
3160,126,129,128,126,128,130,128,126,0
3169,131,127,127,125,128,127,128,129,0
3177,123,130,125,126,128,126,129,128,0
3184,124,128,125,125,127,127,126,125,0
3191,130,125,134,132,131,122,125,124,0
3230,130,125,127,129,129,128,129,129,0
3239,127,127,124,126,126,129,128,127,0
3247,127,129,126,126,127,130,128,128,0
3253,126,126,129,131,130,121,126,125,0
3258,132,125,128,126,126,129,127,128,0
3264,130,128,127,127,127,129,128,128,0
3273,127,129,127,125,127,132,129,128,0
3279,124,129,129,125,126,129,128,129,0
3284,124,128,127,129,128,127,128,128,0
3288,127,128,124,127,128,127,128,128,0
3291,127,129,127,125,127,130,127,128,0
3296,128,125,132,132,130,121,125,125,0
3300,131,126,132,131,126,129,127,128,0
3304,127,128,130,128,129,129,129,128,0
3308,126,129,124,125,127,129,128,128,0
3311,127,128,126,125,128,130,129,129,0
3317,123,130,124,126,127,127,128,127,0
3321,128,128,127,127,127,128,127,127,0
3324,127,128,128,128,127,130,128,128,0
3327,126,128,127,128,126,130,127,128,0
3331,128,127,126,128,127,127,128,128,0
3334,130,128,125,128,128,127,129,128,0
3336,127,129,128,127,126,129,128,128,0
3340,127,127,127,126,127,130,127,127,0
3343,131,126,131,132,130,121,125,124,0
3346,133,124,126,126,126,128,127,127,0
3349,129,126,130,127,127,130,128,128,0
3352,128,128,126,126,130,122,126,125,0
3356,130,126,132,132,130,122,128,128,0
3359,124,129,127,126,128,129,128,128,0
3362,126,127,126,127,127,128,130,128,0
3365,126,126,129,129,128,125,127,126,0
3368,130,126,130,130,128,128,129,129,0
3371,125,128,126,125,127,127,129,128,0
3373,130,128,127,127,126,131,128,129,0
3377,125,129,126,127,130,130,128,128,0
3380,124,129,127,129,128,126,129,129,0
3383,126,128,124,128,128,127,128,127,0
3387,130,128,128,129,128,129,126,128,0
3390,127,129,127,126,126,131,128,126,0
3393,130,125,132,132,131,122,125,125,0
3395,127,128,126,126,126,129,127,127,0
3399,129,124,131,129,128,130,127,128,0
3402,127,126,129,130,128,125,125,125,0
3405,134,124,133,131,130,124,126,129,0
3408,129,126,128,125,127,129,128,129,0
3413,125,130,128,128,127,130,128,129,0
3417,124,128,125,127,126,130,130,129,0
3429,126,127,124,125,127,129,128,129,0
3434,127,130,126,126,128,127,128,128,0
3437,124,129,125,126,128,127,128,129,0
3441,126,129,124,128,129,121,126,125,0
3444,130,126,131,132,131,122,126,126,0
3449,126,129,125,126,127,127,129,129,0
3452,126,128,125,126,127,128,127,128,0
3454,131,126,128,126,126,131,128,129,0
3457,123,129,127,126,126,130,127,127,0
3461,127,127,125,128,128,126,128,127,0
3464,127,128,125,127,126,129,127,128,0
3498,130,128,127,126,127,129,129,128,0
3508,124,128,127,127,127,128,126,128,0
3514,127,128,129,128,126,129,125,127,0
3519,128,127,128,129,126,129,126,127,0
3525,131,125,126,127,126,130,128,126,0
3530,136,127,131,132,131,122,126,125,0
3567,130,124,130,129,128,129,128,127,0
3577,132,129,128,126,129,129,129,129,0
3586,122,131,125,126,126,129,129,128,0
3592,124,129,126,127,127,129,128,128,0
3597,127,127,128,127,129,126,128,128,0
3602,125,129,126,126,128,128,127,128,0
3606,127,128,125,126,126,129,126,126,0
3610,132,123,132,131,130,121,126,125,0
3614,132,125,132,129,129,129,129,128,0
3618,127,128,130,128,128,128,129,128,0
3626,127,129,125,125,126,130,128,128,0
3671,129,129,126,126,125,130,129,126,0
3679,128,127,129,129,129,128,129,129,0
3685,126,127,127,128,128,128,129,129,0
3691,126,130,125,126,127,129,128,129,0
3695,126,127,133,131,130,123,124,124,0
3699,133,126,129,127,125,130,128,128,0
3703,132,128,129,128,128,129,129,129,0
3707,124,130,123,126,126,129,128,128,0
3710,129,128,127,124,127,132,129,129,0
3713,125,129,125,126,127,127,128,127,0
3717,131,127,126,127,126,127,127,126,0
3720,129,129,125,126,127,129,128,128,0
3723,125,130,126,131,130,122,126,125,0
3727,132,125,132,131,128,128,128,128,0
3730,125,130,125,127,126,128,128,128,0
3734,129,127,126,126,126,130,128,128,0
3737,126,128,125,125,125,130,129,128,0
3740,125,128,129,127,126,129,127,128,0
3744,128,127,130,129,129,127,127,127,0
3747,128,127,129,128,126,129,128,128,0
3751,132,125,130,130,128,126,126,126,0
3755,130,125,132,132,131,123,127,128,0
3758,130,128,130,128,128,130,128,127,0
3760,128,128,130,128,128,129,129,128,0
3763,127,129,125,127,127,130,127,127,0
3766,126,128,128,130,129,124,125,126,0
3768,131,127,126,127,127,129,126,128,0
3771,128,127,128,126,127,129,128,126,0
3774,132,129,126,126,127,126,126,126,0
3776,127,126,132,132,131,122,126,128,0
3781,129,125,127,128,129,128,130,129,0
3786,124,130,124,125,129,128,129,129,0
3790,127,128,125,126,125,131,128,128,0
3793,130,129,126,125,127,129,128,128,0
3796,126,129,126,129,128,128,127,127,0
3800,127,126,128,129,127,128,128,128,0
3804,126,129,126,125,127,128,128,128,0
3807,125,129,128,126,127,128,128,128,0
3809,128,127,130,128,127,126,127,127,0
3812,129,128,129,129,127,127,128,128,0
3815,126,128,126,126,127,129,128,126,0
3818,131,125,133,132,129,121,126,124,0
3822,131,124,131,129,128,127,129,128,0
3825,125,129,126,129,127,127,129,128,0
3829,127,129,124,125,126,130,129,128,0
3832,127,127,132,132,130,121,126,124,0
3835,130,126,127,126,126,128,128,128,0
3837,125,130,127,127,127,129,128,128,0
3840,127,124,126,124,127,128,130,129,0
3844,127,126,131,131,130,121,125,124,0
3847,131,126,128,125,127,129,128,128,0
3851,126,129,124,127,127,127,129,129,0
3854,125,129,124,126,126,129,130,128,0
3858,129,128,125,126,124,130,127,128,0
3861,125,128,127,129,128,128,127,128,0
3864,125,127,129,127,129,128,127,128,0
3868,124,128,128,127,128,130,127,127,0
3872,125,128,128,126,127,129,127,127,0
3876,126,127,129,127,129,127,127,128,0
3881,125,128,126,129,128,128,127,128,0
3885,126,127,128,129,128,129,129,128,0
3891,127,127,134,132,130,121,125,124,0
3894,129,126,133,132,131,122,125,127,0
3898,130,127,131,127,127,129,128,129,0
3901,126,127,125,128,128,130,128,129,0
3904,124,128,129,128,129,122,126,126,0
3908,134,125,132,130,126,129,128,129,0
3915,124,129,128,127,127,129,128,128,0
3922,125,127,126,127,128,129,129,129,0
3926,127,127,124,124,127,130,128,129,0
3929,129,128,127,126,128,128,128,128,0
3933,126,129,127,127,128,126,128,128,0
3937,126,129,125,126,125,127,128,128,0
3940,128,128,129,131,130,123,125,124,0
3945,132,125,133,131,130,125,128,128,0
3950,125,128,125,126,127,128,128,129,0
3953,126,128,124,126,126,129,128,128,0
3957,124,130,125,125,125,130,129,129,0
3960,125,129,126,127,126,128,128,128,0
3963,127,128,128,127,129,127,128,129,0
3967,126,129,125,127,127,129,127,127,0
3971,127,128,127,126,126,130,126,129,0
3974,127,128,128,128,126,129,125,128,0
3976,127,127,129,129,127,127,127,127,0
3979,128,128,126,129,128,126,128,129,0
3983,128,126,130,133,130,121,126,126,0
3986,130,125,133,132,130,121,125,125,0
3989,135,127,125,126,128,129,129,128,0
3991,125,129,129,128,128,128,129,128,0
3994,123,129,124,126,125,130,128,126,0
3999,127,127,133,132,129,121,125,126,0
4004,128,125,127,128,129,128,129,128,0
4007,128,128,126,127,128,128,129,128,0
4010,126,128,126,124,126,131,129,126,0
4013,127,127,130,131,129,125,126,128,0
4016,126,129,125,126,127,127,129,128,0
4019,127,128,124,126,126,129,129,128,0
4023,128,127,128,125,126,129,127,128,0
4026,125,128,126,125,126,130,128,128,0
4029,126,128,127,127,126,127,128,128,0
4032,126,129,128,128,127,128,128,128,0
4035,126,129,128,131,128,124,126,124,0
4038,131,124,132,132,131,122,126,125,0
4041,130,127,126,127,128,127,129,129,0
4045,125,130,127,126,126,129,127,128,0
4048,130,126,126,126,126,131,128,128,0
4051,128,129,126,125,130,129,129,128,0
4055,125,129,124,127,126,127,128,127,0
4058,129,128,129,127,127,129,126,127,0
4062,126,128,126,126,125,129,127,128,0
4066,124,128,127,126,127,129,126,125,0
4069,133,125,132,133,128,127,127,127,0
4072,129,126,132,127,128,129,128,127,0
4075,128,129,129,126,127,129,129,128,0
4080,128,128,127,126,126,129,129,127,0
4083,127,129,126,127,127,126,128,128,0
4087,127,128,127,127,128,127,128,128,0
4091,128,128,126,127,128,129,127,128,0
4095,129,124,134,131,129,122,124,125,0
4098,131,125,132,131,129,128,128,129,0
4101,126,125,130,128,129,127,129,128,0
4105,130,127,125,125,126,129,129,129,0
4108,127,129,125,124,127,130,129,129,0
4113,125,129,127,127,127,128,127,128,0
4117,127,127,127,129,128,128,128,127,0
4122,127,127,130,127,127,129,129,125,0
4126,133,124,133,131,130,123,126,125,0
4129,131,124,134,131,128,130,128,128,0
4133,127,127,129,125,126,129,128,128,0
4136,125,127,128,127,127,130,129,128,0
4139,125,129,128,128,126,130,127,128,0
4141,126,127,129,126,127,128,128,127,0
4144,130,129,126,128,128,128,127,128,0
4148,127,128,125,127,126,130,127,127,0
4151,128,128,128,132,130,122,125,126,0
4153,130,124,134,132,129,127,128,128,0
4156,129,128,126,127,127,128,128,128,0
4159,129,126,128,126,126,130,128,128,0
4162,126,126,129,125,125,131,127,129,0
4166,126,129,129,126,128,128,129,129,0
4169,125,130,124,126,127,128,128,128,0
4173,129,128,129,127,126,130,126,128,0
4176,127,128,128,126,127,130,127,127,0
4179,127,128,128,127,127,129,127,127,0
4183,128,128,128,128,128,127,127,128,0
4186,126,127,127,127,128,128,126,125,0
4189,131,125,132,134,130,122,126,125,0
4192,129,126,134,132,130,123,126,128,0
4195,125,129,128,128,128,128,129,127,0
4199,126,128,126,125,128,129,129,128,0
4202,127,128,126,125,127,130,129,127,0
4206,130,126,130,129,128,125,126,127,0
4209,127,129,127,126,128,127,128,128,0
4213,125,129,125,127,127,127,129,128,0
4218,129,129,126,126,126,131,128,127,0
4224,125,128,130,128,128,129,128,128,0
4229,127,128,127,128,128,127,127,128,0
4232,128,127,128,127,127,129,127,127,0
4235,135,126,127,126,126,130,129,130,0
4239,126,128,130,131,131,121,126,125,0
4242,128,125,128,126,128,128,127,128,0
4246,127,128,127,126,128,127,129,129,0
4249,126,127,129,129,129,125,126,126,0
4252,129,125,133,132,130,122,125,125,0
4255,124,129,128,128,130,128,127,128,0
4258,128,128,128,128,126,129,128,128,0
4261,129,127,128,125,127,130,128,129,0
4264,123,130,125,124,127,129,129,129,0
4267,127,128,126,126,126,128,127,127,0
4270,128,128,127,129,129,127,129,129,0
4273,126,129,127,126,127,130,126,128,0
4276,124,128,128,128,127,129,127,128,0
4280,125,126,128,128,127,128,127,128,0
4283,132,126,128,128,127,129,127,128,0
4286,128,127,128,128,128,128,127,128,0
4290,132,126,132,132,130,122,126,125,0
4293,130,125,132,132,130,127,129,128,0
4296,130,128,124,126,128,128,129,128,0
4301,125,129,126,126,127,131,127,129,0
4305,126,126,129,130,129,122,126,125,0
4309,129,125,130,126,126,128,128,127,0
4316,128,128,129,126,127,129,128,128,0
4319,128,127,127,128,128,129,127,128,0
4322,125,128,129,128,126,130,128,128,0
4325,125,127,127,126,128,127,128,127,0
4328,130,128,124,126,127,128,127,127,0
4332,127,128,124,127,128,129,128,128,0
4337,125,129,125,126,126,130,128,128,0
4341,126,129,128,127,126,129,127,127,0
4345,127,127,128,129,128,127,127,128,0
4352,126,128,126,127,127,128,128,126,0
4356,125,128,127,127,127,123,125,125,0
4359,137,124,132,132,129,121,126,125,0
4363,129,127,130,128,128,127,130,128,0
4366,127,124,131,125,126,131,128,127,0
4369,126,129,127,125,125,129,127,126,0
4372,130,124,134,132,130,125,127,128,0
4375,126,129,126,128,129,126,129,129,0
4378,125,129,124,127,127,129,130,128,0
4381,124,128,125,124,126,130,128,129,0
4384,124,128,126,126,128,126,128,128,0
4387,126,128,125,127,128,125,128,128,0
4389,128,128,124,127,127,130,127,127,0
4392,131,127,125,125,127,129,128,129,0
4395,128,128,130,131,130,121,124,125,0
4399,130,126,130,127,126,129,127,127,0
4401,131,128,127,127,127,128,130,125,0
4404,125,129,125,126,126,130,128,129,0
4407,126,128,128,126,127,129,127,128,0
4410,125,128,127,127,128,127,128,128,0
4414,129,126,126,127,128,129,129,128,0
4417,131,127,130,131,130,122,125,125,0
4421,129,126,132,131,129,121,125,127,0
4424,128,125,127,128,128,129,127,128,0
4427,129,125,128,125,127,131,129,129,0
4431,125,129,124,126,125,129,128,128,0
4435,127,127,129,127,127,131,127,129,0
4441,124,129,127,128,128,127,128,128,0
4444,125,130,124,126,126,127,129,128,0
4447,127,129,127,127,125,130,127,128,0
4450,127,127,130,132,131,121,125,125,0
4454,128,125,129,129,127,129,128,127,0
4457,128,127,130,129,129,129,129,128,0
4459,128,127,125,127,128,130,128,128,0
4463,127,128,125,126,126,130,127,128,0
4465,126,128,128,128,127,127,127,127,0
4468,133,126,128,128,127,128,128,128,0
4471,128,129,127,127,127,130,126,126,0
4474,128,125,133,133,130,122,125,125,0
4477,130,126,128,128,128,129,128,129,0
4481,129,128,129,128,128,128,129,129,0
4484,124,130,124,126,125,129,128,128,0
4487,127,127,126,125,127,129,128,128,0
4490,131,126,126,127,128,127,128,128,0
4494,126,129,126,126,129,127,129,129,0
4497,125,129,126,125,127,129,128,127,0
4500,125,129,126,127,126,129,127,128,0
4507,126,128,129,129,128,128,126,128,0
4504,126,127,128,127,128,127,125,127,0
4510,128,128,126,126,128,124,125,124,0
4513,132,125,132,131,129,122,125,125,0
4516,131,124,133,130,125,128,128,128,0
4520,131,128,125,126,126,129,127,128,0
4528,130,126,126,126,126,131,128,129,0
4531,124,129,130,126,127,125,126,126,0
4535,129,127,130,129,127,130,127,127,0
4539,127,128,128,128,129,128,129,128,0
4545,125,128,125,125,127,128,128,128,0
4549,125,130,129,132,129,122,125,125,0
4554,130,125,131,129,129,129,128,128,0
4558,127,127,127,129,129,126,129,128,0
4562,129,128,125,125,125,130,128,128,0
4564,129,128,126,125,127,130,128,129,0
4567,126,129,127,127,127,129,127,128,0
4570,126,128,130,128,128,128,129,128,0
4573,126,127,128,127,127,129,128,128,0
4576,125,129,126,126,126,129,128,128,0
4581,124,129,126,127,125,127,127,127,0
4583,126,127,128,129,128,127,127,127,0
4586,133,126,126,127,127,129,128,125,0
4589,134,125,131,131,130,122,126,125,0
4591,129,125,133,131,130,124,127,127,0
4594,130,125,128,126,128,129,129,129,0
4599,125,130,126,125,128,129,129,129,0
4603,127,128,126,125,125,131,129,126,0
4606,128,128,130,130,128,123,126,127,0
4609,127,127,128,126,127,127,128,127,0
4611,134,126,126,126,127,129,129,129,0
4614,126,130,126,126,126,131,127,129,0
4617,122,129,125,126,126,128,128,129,0
4620,128,127,128,128,128,128,126,128,0
4624,127,128,127,127,128,129,129,128,0
4626,127,128,127,126,127,130,128,127,0
4630,129,125,135,134,130,122,124,125,0
4633,125,128,127,127,128,128,127,127,0
4639,130,124,130,128,126,129,128,128,0
4644,127,128,127,126,127,129,129,129,0
4648,124,129,127,126,127,129,128,128,0
4653,127,127,125,128,128,127,129,129,0
4658,129,129,125,127,127,127,129,128,0
4662,127,129,125,126,128,130,128,128,0
4666,125,129,127,127,127,128,128,127,0
4670,126,127,128,129,128,127,127,127,0
4676,129,127,128,128,127,129,127,126,0
4679,133,123,133,131,129,123,125,125,0
4683,132,125,132,132,131,122,126,126,0
4686,127,129,125,124,127,127,129,127,0
4689,128,128,126,125,126,128,130,128,0
4693,129,129,123,126,126,129,128,130,0
4697,124,130,125,128,130,122,126,125,0
4700,130,127,127,126,126,127,127,128,0
4703,127,129,127,127,127,129,128,128,0
4707,126,129,125,127,127,129,128,129,0
4711,125,128,125,126,126,130,128,129,0
4714,125,129,126,127,128,125,128,128,0
4716,128,128,125,127,127,127,128,128,0
4719,128,128,125,127,127,129,128,126,0
4722,128,127,127,127,127,129,128,128,0
4725,128,128,128,127,126,128,126,126,0
4727,131,127,128,127,127,128,128,127,0
4730,131,127,127,127,129,123,125,126,0
4732,129,125,132,131,130,122,125,124,0
4736,130,126,133,130,126,128,128,128,0
4738,127,128,125,128,130,127,129,128,0
4742,125,129,124,125,126,129,128,129,0
4745,128,126,127,124,126,130,128,129,0
4748,123,127,125,126,128,127,128,128,0
4750,127,126,130,129,128,128,128,129,0
4754,125,129,124,125,127,129,128,129,0
4760,125,129,126,126,127,130,128,129,0
4764,126,128,128,128,127,129,125,128,0
4769,127,128,127,128,128,127,128,128,0
4773,127,129,124,127,126,129,127,128,0
4780,127,128,131,133,130,122,125,124,0
4784,130,124,134,132,130,121,125,124,0
4787,129,128,127,126,127,129,127,127,0
4790,131,127,127,126,126,131,128,125,0
4793,131,125,128,129,128,124,126,125,0
4796,129,127,133,131,128,130,129,128,0
4799,126,127,127,127,128,128,129,128,0
4803,125,129,124,124,126,129,128,128,0
4806,130,125,127,124,126,131,128,129,0
4809,127,130,124,125,126,127,128,128,0
4812,126,130,125,127,127,128,128,127,0
4815,129,127,130,129,127,130,128,128,0
4818,126,127,126,126,127,130,128,129,0
4822,124,131,127,128,126,127,127,127,0
4826,126,128,127,128,128,128,126,127,0
4830,129,126,128,129,129,128,127,127,0
4833,129,129,127,127,127,130,128,129,0
4836,126,128,128,130,131,120,126,125,0
4839,132,126,130,127,127,128,127,128,0
4844,128,128,131,127,126,129,127,128,0
4847,126,128,130,127,128,121,126,125,0
4849,132,124,133,132,131,121,126,126,0
4852,127,129,125,125,126,126,128,128,0
4855,127,128,126,125,127,130,129,128,0
4858,126,127,129,127,127,130,129,129,0
4861,128,126,129,130,129,124,127,126,0
4864,126,129,127,126,127,128,128,128,0
4866,125,128,129,128,127,128,128,128,0
4869,127,128,127,126,129,130,128,128,0
4874,127,128,126,125,126,128,128,129,0
4879,125,128,127,128,127,127,128,128,0
4883,128,128,125,126,126,127,128,128,0
4886,129,128,128,126,125,128,129,129,0
4889,125,130,126,127,127,129,126,127,0
4892,129,127,128,128,129,126,129,128,0
4894,126,128,126,127,127,127,129,128,0
4897,126,127,128,131,130,121,125,125,0
4900,131,124,133,132,131,121,126,125,0
4903,131,125,129,127,126,128,128,128,0
4906,127,129,125,126,127,130,128,127,0
4910,126,129,127,127,128,129,129,129,0
4913,127,127,130,132,130,121,125,125,0
4916,130,127,124,124,130,127,128,128,0
4921,126,127,128,127,128,129,128,128,0
4924,127,128,126,127,127,130,128,127,0
4927,127,126,129,125,126,131,128,128,0
4930,125,128,127,126,127,128,127,128,0
4933,126,127,127,126,128,128,128,128,0
4936,126,128,124,127,127,129,128,128,0
4938,124,129,127,126,125,130,127,125,0
4942,127,126,130,130,128,126,128,128,0
4945,128,128,125,128,128,126,128,128,0
4947,130,126,125,126,126,129,128,129,0
4950,124,130,127,127,126,130,126,128,0
4954,127,128,129,128,128,128,127,128,0
4958,127,127,127,129,129,127,129,128,0
4963,127,129,128,127,125,128,127,128,0
4966,127,126,132,132,130,122,125,125,0
4971,132,125,134,132,130,124,127,128,0
4976,124,128,128,126,128,128,129,129,0
4979,127,127,125,126,126,129,129,128,0
4988,128,128,129,127,125,129,128,129,0
4994,125,127,128,127,128,126,126,128,0
4998,127,127,127,129,128,127,129,128,0
5001,125,129,125,127,127,127,129,126,0
5005,128,125,133,133,130,122,126,125,0
5008,134,122,134,131,129,125,129,129,0
5011,123,129,128,127,128,129,129,128,0
5015,125,129,128,128,128,129,130,129,0
5018,125,130,124,125,126,129,127,128,0
5021,125,127,130,127,127,128,128,128,0
5025,125,127,125,126,129,126,129,128,0
5028,130,128,126,128,127,129,127,128,0
5032,129,126,129,126,126,130,129,129,0
5035,124,129,126,126,128,128,127,128,0
5038,126,128,128,129,128,127,128,128,0
5041,127,128,128,128,128,128,128,128,0
5045,127,129,131,134,131,122,125,125,0
5048,130,122,133,132,130,121,125,126,0
5052,127,128,125,125,127,127,128,127,0
5055,128,129,126,126,125,130,128,127,0
5058,130,128,127,125,126,130,126,128,0
5061,126,129,125,126,126,130,126,128,0
5065,128,127,128,128,127,127,127,127,0
5068,131,125,128,128,127,129,126,127,0
5072,127,128,130,131,129,121,126,125,0
5075,128,126,131,132,130,123,126,126,0
5078,126,127,130,127,126,129,128,127,0
5081,127,128,128,128,130,128,129,129,0
5084,128,128,128,126,127,129,131,129,0
5087,126,129,125,127,127,129,128,128,0
5094,127,129,126,126,126,128,127,127,0
5098,127,127,128,127,126,128,127,127,0
5101,127,127,126,126,127,129,128,128,0
5104,124,130,126,127,126,131,126,128,0
5107,128,128,127,127,127,128,127,128,0
5109,126,128,128,127,126,128,126,127,0
5114,127,128,127,127,127,131,129,124,0
5117,137,124,133,132,131,121,126,127,0
5120,130,126,126,125,128,127,129,128,0
5123,127,129,124,126,127,129,127,127,0
5127,130,126,127,124,126,132,127,128,0
5129,125,128,129,127,127,130,128,128,0
5133,125,127,128,129,128,126,129,127,0
5136,131,128,124,127,128,128,130,129,0
5139,125,129,126,127,128,124,125,126,0
5142,131,125,132,131,129,120,126,126,0
5146,130,126,130,125,126,129,129,128,0
5149,130,128,126,124,127,130,127,127,0
5153,130,128,125,126,125,129,130,129,0
5156,126,130,125,124,126,130,127,128,0
5159,127,128,128,128,127,128,128,127,0
5161,127,128,127,129,129,127,129,128,0
5165,126,129,123,128,129,124,126,125,0
5167,130,126,128,129,128,125,126,126,0
5170,128,125,129,131,128,127,130,129,0
5173,126,129,124,125,128,127,129,129,0
5177,125,129,124,124,126,128,128,129,0
5180,126,129,127,129,127,127,126,127,0
5184,127,127,128,128,127,129,128,128,0
5186,128,129,126,128,129,126,129,129,0
5191,128,130,125,126,127,129,128,129,0
5194,127,128,126,126,126,130,128,128,0
5198,125,128,130,129,126,128,127,128,0
5204,129,126,128,130,129,128,126,128,0
5208,130,127,128,128,127,129,127,128,0
5212,125,129,125,126,129,123,125,126,0
5215,130,126,132,131,130,121,126,127,0
5217,124,128,125,126,128,126,129,128,0
5220,128,128,127,127,126,131,127,127,0
5223,130,127,126,125,126,130,129,129,0
5225,123,129,128,126,127,127,127,128,0
5228,125,128,127,127,127,127,128,127,0
5230,128,128,127,127,126,128,128,127,0
5234,126,128,126,127,126,130,127,125,0
5237,131,124,133,133,131,122,124,125,0
5239,129,127,128,128,128,127,130,129,0
5242,126,129,124,126,126,128,129,129,0
5245,129,128,126,126,126,131,127,128,0
5249,126,125,130,132,131,121,124,125,0
5252,129,128,125,126,127,128,127,127,0
5255,130,126,126,126,126,129,127,127,0
5259,128,128,126,126,125,130,127,128,0
5261,127,128,127,125,127,130,127,127,0
5264,127,128,128,129,128,127,128,128,0
5267,127,126,127,127,127,128,127,128,0
5270,127,129,125,126,126,130,127,128,0
5274,126,127,133,133,131,120,125,125,0
5277,130,127,128,130,129,129,127,128,0
5281,124,128,127,129,128,128,128,129,0
5285,129,129,125,126,126,130,128,128,0
5288,130,123,133,131,130,122,126,126,0
5291,130,127,125,124,129,127,128,128,0
5295,131,128,126,126,127,129,128,129,0
5301,123,129,126,126,126,132,127,128,0
5305,126,127,129,130,129,126,126,126,0
5308,127,126,130,125,128,128,128,128,0
5311,127,127,127,128,129,128,129,129,0
5314,124,130,125,126,126,131,127,129,0
5317,127,127,129,130,128,124,126,127,0
5320,131,127,125,125,127,128,129,130,0
5322,127,129,124,126,128,127,128,130,0
5326,127,128,125,125,126,130,128,130,0
5329,127,130,127,125,126,130,128,130,0
5332,126,128,126,128,127,127,127,129,0
5335,128,128,127,128,127,127,128,129,0
5339,125,129,124,126,126,129,127,126,0
5342,132,123,133,131,130,122,126,125,0
5345,132,125,129,126,125,128,128,128,0
5348,128,129,127,127,127,129,128,128,0
5351,126,128,129,128,127,130,129,129,0
5355,126,125,129,130,129,126,127,127,0
5358,129,127,129,129,127,129,128,128,0
5361,126,128,126,126,128,127,129,128,0
5366,126,130,123,125,127,129,129,128,0
5369,126,128,126,125,127,129,128,129,0
5372,127,126,127,127,128,126,128,128,0
5376,126,129,125,128,129,126,129,128,0
5379,125,129,125,126,127,129,129,129,0
5382,125,128,127,126,128,121,125,125,0
5385,134,125,132,132,129,125,131,128,0
5388,128,128,125,127,128,128,128,128,0
5391,129,128,128,127,127,130,127,128,0
5396,128,128,126,126,127,128,126,126,0
5400,126,127,130,131,128,128,129,127,0
5405,125,127,130,129,128,127,130,128,0
5409,127,129,124,126,125,128,128,128,0
5414,126,129,126,127,126,128,125,124,0
5420,134,123,134,132,130,123,127,128,0
5424,126,127,130,126,127,129,128,128,0
5426,127,129,125,126,125,130,128,128,0
5429,126,129,127,126,126,131,128,128,0
5432,127,128,127,128,127,129,128,129,0
5435,126,128,127,129,129,128,128,126,0
5437,127,127,127,129,128,129,127,127,0
5440,126,128,126,126,127,129,126,127,0
5443,125,129,127,126,128,122,125,124,0
5446,131,124,132,131,128,127,129,128,0
5449,129,127,124,126,127,128,128,127,0
5452,128,128,126,126,127,129,125,125,0
5455,128,126,132,132,130,121,126,125,0
5459,129,128,125,125,129,126,129,128,0
5462,128,127,125,125,128,128,130,128,0
5466,122,130,125,125,128,126,126,127,0
5469,133,125,131,131,130,122,126,127,0
5472,124,130,125,125,127,129,128,128,0
5475,127,128,124,124,126,129,128,128,0
5478,128,129,126,125,126,131,127,128,0
5481,124,128,128,130,129,126,126,127,0
5483,128,126,131,126,128,127,128,129,0
5486,125,129,127,129,129,128,128,129,0
5488,125,128,125,126,126,129,128,128,0
5491,126,129,127,126,127,129,128,128,0
5494,126,128,127,127,128,126,128,128,0
5497,126,128,125,130,128,128,128,127,0
5500,126,129,127,127,126,130,126,128,0
5503,127,125,131,132,131,123,124,125,0
5509,132,125,132,131,126,128,127,128,0
5513,127,127,129,128,128,129,128,128,0
5516,127,128,127,128,127,130,128,127,0
5518,126,128,127,125,128,129,129,128,0
5521,130,127,127,126,127,127,128,128,0
5524,127,130,125,127,127,127,128,127,0
5527,125,129,125,125,128,130,128,127,0
5530,130,125,132,132,130,121,125,125,0
5532,130,126,130,128,127,127,128,127,0
5535,127,128,125,126,128,127,128,127,0
5538,131,127,124,125,128,129,127,128,0
5541,126,129,127,125,127,130,129,129,0
5544,124,128,126,127,127,128,128,128,0
5548,128,127,128,128,129,128,127,126,0
5550,130,127,128,126,127,130,127,129,0
5553,126,128,127,127,126,130,128,127,0
5556,131,124,133,133,131,120,125,124,0
5560,128,128,127,127,127,128,127,127,0
5563,130,125,127,126,126,130,128,128,0
5566,126,130,128,126,126,129,129,128,0
5569,127,127,130,131,129,122,126,125,0
5574,128,127,130,127,129,128,129,129,0
5577,127,128,125,125,127,129,130,126,0
5581,128,127,130,129,128,125,126,125,0
5584,128,127,130,130,128,129,128,128,0
5587,127,127,126,128,128,127,128,129,0
5592,130,129,125,125,129,129,131,129,0
5595,125,129,126,124,126,130,130,129,0
5598,126,129,125,125,126,127,128,128,0
5604,128,128,125,128,128,127,128,127,0
5607,130,127,125,127,127,128,126,127,0
5613,129,128,128,127,126,130,129,129,0
5616,128,125,133,132,129,120,125,125,0
5620,124,127,127,129,129,126,129,128,0
5627,128,128,125,126,126,128,128,128,0
5634,127,128,126,126,128,125,127,126,0
5639,131,126,134,133,130,123,127,128,0
5642,126,129,127,126,127,129,127,127,0
5645,132,125,130,128,129,129,128,127,0
5648,125,127,127,127,127,130,127,125,0
5650,131,125,133,131,130,124,126,128,0
5655,126,130,126,127,126,127,128,128,0
5658,125,129,125,128,127,129,128,128,0
5661,127,129,124,124,125,130,126,125,0
5664,129,127,131,129,129,125,127,128,0
5668,127,128,128,127,128,129,127,128,0
5671,129,126,126,126,128,128,129,129,0
5674,129,129,125,125,126,131,127,129,0
5677,124,129,127,126,127,128,129,128,0
5680,125,129,124,127,126,126,127,127,0
5684,130,128,126,127,126,128,126,127,0
5687,127,128,127,126,127,130,128,126,0
5692,131,125,133,132,130,121,125,125,0
5694,131,127,125,125,128,127,127,128,0
5698,128,128,125,127,128,129,128,128,0
5701,125,130,124,125,127,129,126,126,0
5705,128,126,130,130,128,126,126,126,0
5708,128,129,125,125,126,128,127,127,0
5712,128,128,131,128,127,129,129,128,0
5715,124,128,128,128,127,130,129,128,0
5719,129,128,126,125,128,128,128,129,0
5723,126,129,125,127,129,126,129,128,0
5726,126,128,126,127,127,128,128,127,0
5729,130,126,128,132,129,123,126,125,0
5733,131,126,133,131,129,121,126,124,0
5739,131,125,127,127,127,129,128,128,0
5745,127,127,128,127,126,129,128,127,0
5749,133,127,128,124,126,132,128,128,0
5753,124,128,128,129,128,126,127,126,0
5756,128,130,125,126,128,127,128,129,0
5760,126,130,125,126,126,128,128,128,0
5763,127,128,128,125,126,127,126,125,0
5766,127,128,126,125,126,129,128,128,0
5770,127,129,128,128,127,127,126,128,0
5773,127,127,127,129,129,127,129,128,0
5777,126,128,125,126,128,129,128,128,0
5780,126,129,128,133,129,122,125,125,0
5784,129,126,134,132,128,128,127,128,0
5787,125,126,127,128,129,127,129,128,0
5790,128,128,126,126,128,128,128,129,0
5794,123,129,126,124,125,131,126,127,0
5797,127,128,127,127,128,127,129,128,0
5800,127,129,125,126,127,127,128,127,0
5803,130,128,125,127,126,127,126,125,0
5807,131,126,133,132,130,124,125,124,0
5811,131,124,133,131,127,128,129,128,0
5815,131,126,126,127,129,127,129,129,0
5818,124,131,123,125,125,130,128,130,0
5820,125,128,126,125,127,130,128,129,0
5823,126,129,124,125,125,129,127,127,0
5826,131,128,128,128,127,128,127,127,0
5829,126,127,127,129,128,130,129,128,0
5832,127,128,127,126,126,130,127,128,0
5836,128,128,126,128,128,128,128,128,0
5842,128,127,129,128,128,128,128,128,0
5845,129,127,128,127,127,128,127,127,0
5848,126,129,125,127,127,130,126,126,0
5852,128,125,134,132,131,120,124,124,0
5858,129,128,124,126,128,127,128,128,0
5861,130,129,127,127,127,129,128,127,0
5865,127,128,124,125,126,128,126,126,0
5868,131,124,134,132,131,122,125,126,0
5871,128,128,126,126,127,129,128,128,0
5875,131,126,127,125,126,130,127,128,0
5878,127,128,126,127,128,130,129,129,0
5881,123,131,125,126,127,128,128,129,0
5885,123,129,127,128,127,128,127,127,0
5888,127,127,129,127,128,128,129,129,0
5892,129,128,125,125,125,129,125,125,0
5894,129,126,132,131,129,122,126,125,0
5898,132,124,127,128,129,127,129,129,0
5901,127,129,125,126,125,130,127,127,0
5905,127,130,125,127,125,130,128,128,0
5907,126,129,127,128,127,130,128,128,0
5910,124,127,127,128,129,126,128,128,0
5914,129,127,126,127,128,127,128,128,0
5917,128,129,124,128,126,129,129,127,0
5919,129,125,131,132,130,121,125,125,0
5922,130,126,127,126,126,128,127,127,0
5925,129,128,127,127,126,130,128,128,0
5928,125,128,128,128,127,129,128,126,0
5931,128,127,129,130,128,124,126,126,0
5935,130,126,126,125,128,127,128,128,0
5937,129,128,126,126,127,129,128,128,0
5940,127,130,129,127,127,130,129,129,0
5943,123,129,127,125,128,129,130,126,0
5946,126,129,126,126,126,127,127,127,0
5951,128,128,126,127,127,129,127,128,0
5957,130,127,130,128,128,129,127,127,0
5961,124,129,126,127,125,130,128,127,0
5964,127,128,128,128,128,127,126,128,0
5967,127,127,128,127,127,128,127,127,0
5970,132,127,128,127,128,129,126,125,0
5974,131,125,132,131,130,121,126,125,0
5977,130,125,132,130,127,129,128,128,0
5980,127,126,128,128,128,129,128,127,0
5983,124,126,129,126,126,130,129,128,0
5986,123,128,128,126,126,129,126,126,0
5989,130,125,129,129,127,129,129,127,0
5991,128,126,126,128,129,126,129,128,0
5995,128,129,125,125,126,130,128,128,0
5997,124,129,127,126,128,122,126,126,0
6001,130,125,134,131,129,128,129,127,0
6005,124,129,129,128,130,127,129,128,0
6007,126,129,124,125,126,128,129,129,0
6011,126,130,125,125,126,130,127,129,0
6014,123,130,126,127,126,127,126,128,0
6017,125,127,130,129,129,129,128,129,0
6020,127,127,128,128,127,129,127,128,0
6023,132,124,132,132,130,123,126,125,0
6025,132,125,131,132,129,126,130,128,0
6029,127,128,124,127,128,128,128,129,0
6032,125,130,124,126,126,128,128,128,0
6035,127,129,126,126,126,129,126,127,0
6038,130,126,131,131,130,125,130,128,0
6040,126,128,125,127,129,127,128,128,0
6043,128,127,125,128,130,128,128,128,0
6047,127,128,124,125,127,129,130,127,0
6051,126,127,130,130,129,123,125,124,0
6057,127,127,127,127,127,127,127,127,0
6060,132,124,130,127,127,130,129,129,0
6063,126,130,125,125,126,129,129,129,0
6066,122,129,127,127,127,129,129,128,0
6069,127,129,124,126,127,127,127,128,0
6071,129,128,127,127,126,130,127,128,0
6075,127,128,128,128,125,127,125,125,0
6078,129,124,134,133,130,122,125,125,0
6081,125,129,126,127,126,128,127,127,0
6086,133,127,124,126,129,128,129,129,0
6089,126,130,124,127,127,130,128,127,0
6098,127,128,129,130,128,124,126,125,0
6102,127,127,126,127,126,128,128,128,0
6105,132,126,130,126,127,128,129,128,0
6111,126,129,125,127,128,130,128,129,0
6115,122,127,129,131,130,120,126,125,0
6119,127,129,125,128,129,128,128,128,0
6123,127,128,125,128,128,128,130,129,0
6127,125,129,124,126,125,130,127,128,0
6132,130,126,130,130,128,125,125,126,0
6136,133,124,128,126,126,129,128,129,0
6139,126,130,130,128,129,128,128,129,0
6144,124,128,126,126,127,129,128,128,0
6147,125,128,128,125,127,130,127,127,0
6150,127,128,129,128,128,128,127,128,0
6154,126,128,126,129,128,127,128,128,0
6158,128,128,127,126,127,130,128,128,0
6162,128,128,128,131,128,121,125,124,0
6165,130,125,133,131,128,127,129,128,0
6170,127,128,125,127,127,128,127,127,0
6178,133,127,126,125,126,130,128,128,0
6184,125,129,127,125,127,128,129,128,0
6187,127,127,129,128,127,127,128,127,0
6190,128,128,126,129,128,127,128,128,0
6193,127,127,126,126,128,126,124,125,0
6197,130,125,134,133,130,122,126,125,0
6200,133,125,131,130,126,130,127,129,0
6203,126,126,130,128,128,130,127,127,0
6206,129,126,129,127,130,129,129,129,0
6209,126,128,125,127,128,126,127,126,0
6213,129,127,128,129,127,127,129,129,0
6216,125,130,124,126,128,127,128,128,0
6220,125,128,125,124,126,129,128,129,0
6223,124,128,127,125,128,126,125,125,0
6226,132,125,131,129,128,129,128,128,0
6230,125,128,126,129,129,127,129,128,0
6233,128,128,125,125,127,129,129,129,0
6237,125,128,126,128,129,122,126,125,0
6240,132,124,132,131,130,127,128,128,0
6244,126,128,124,125,127,127,128,128,0
6247,128,127,129,126,126,130,128,128,0
6250,124,129,126,128,126,130,130,128,0
6254,126,128,125,126,126,126,128,128,0
6257,129,128,128,128,128,129,126,128,0
6260,126,128,128,127,128,129,126,127,0
6264,125,129,127,127,127,129,128,128,0
6267,126,126,127,127,127,128,128,128,0
6271,127,128,128,129,127,129,127,128,0
6274,128,128,125,128,128,128,127,126,0
6279,134,126,125,126,127,130,128,129,0
6282,125,129,126,126,128,128,127,128,0
6286,125,128,129,128,128,126,127,128,0
6289,129,129,127,127,127,129,127,126,0
6294,130,126,133,132,130,123,126,125,0
6299,130,125,132,131,129,120,126,125,0
6302,130,128,125,126,127,129,127,128,0
6305,129,126,128,125,126,130,126,128,0
6309,127,126,128,127,126,130,128,128,0
6312,126,127,132,130,130,121,126,125,0
6316,130,127,126,126,126,129,127,128,0
6318,126,127,129,129,127,128,129,127,0
6321,126,128,127,128,126,132,126,126,0
6324,132,125,134,132,130,122,126,125,0
6327,125,128,125,128,128,127,128,128,0
6329,128,128,127,128,128,128,129,128,0
6333,123,130,124,124,125,131,128,128,0
6340,123,129,126,128,127,130,128,127,0
6344,129,126,128,127,127,128,127,128,0
6347,128,127,130,128,128,129,128,129,0
6350,128,131,124,125,127,129,129,128,0
6356,126,129,125,126,127,128,128,127,0
6359,128,128,129,127,127,127,126,127,0
6361,127,127,128,128,127,128,127,127,0
6364,125,129,125,129,126,128,128,128,0
6368,131,125,132,132,131,121,126,125,0
6371,131,124,131,128,128,126,129,128,0
6380,128,128,124,127,128,127,129,128,0
6384,125,129,125,124,128,126,126,124,0
6386,131,124,134,131,129,121,126,125,0
6391,131,126,125,123,130,128,128,129,0
6394,126,129,126,125,127,128,128,129,0
6400,125,128,125,126,127,130,128,128,0
6405,129,125,127,124,125,131,128,129,0
6409,125,129,129,128,128,127,128,128,0
6412,125,128,126,130,128,126,128,128,0
6415,129,129,124,126,126,129,128,129,0
6419,124,130,126,127,126,129,128,129,0
6422,125,128,127,127,126,128,127,127,0
6425,128,128,128,129,128,128,128,128,0
6429,128,128,126,127,127,129,128,128,0
6432,132,127,132,132,130,121,126,126,0
6436,130,126,132,132,128,129,128,128,0
6438,127,127,130,129,128,128,129,129,0
6441,126,128,126,125,127,130,129,128,0
6448,125,128,128,127,126,131,127,128,0
6454,127,126,127,126,127,128,128,128,0
6458,127,129,126,128,128,128,128,128,0
6462,128,128,127,127,128,129,127,128,0
6465,126,129,127,127,126,130,126,129,0
6468,126,128,128,128,127,127,127,127,0
6472,128,128,127,129,129,127,128,128,0
6476,126,127,128,128,128,124,124,125,0
6479,132,125,131,132,130,121,126,125,0
6491,131,125,134,131,130,124,127,127,0
6496,126,128,127,128,129,127,129,128,0
6499,129,128,124,125,126,128,129,129,0
6502,126,129,126,125,126,131,129,129,0
6505,128,126,128,126,126,129,128,128,0
6509,125,128,127,130,129,128,127,128,0
6512,126,128,126,128,128,128,129,128,0
6516,126,128,124,126,126,131,127,128,0
6518,126,128,130,127,127,128,128,128,0
6521,128,128,125,127,126,126,128,128,0
6525,129,128,126,127,126,128,127,129,0
6529,130,124,134,132,130,123,125,125,0
6534,131,125,134,132,130,122,125,124,0
6542,128,128,125,125,128,128,129,128,0
6546,131,128,127,128,128,129,129,128,0
6548,124,129,128,128,126,131,129,126,0
6552,129,126,129,130,129,124,126,127,0
6555,125,127,127,128,129,127,129,128,0
6558,125,128,125,125,125,128,128,126,0
6561,128,128,129,127,127,131,129,128,0
6565,126,127,130,130,129,125,126,128,0
6577,125,129,125,127,128,127,129,128,0
6581,125,129,124,126,126,127,130,128,0
6584,126,130,127,130,128,125,127,126,0
6587,131,125,129,129,130,125,128,129,0
6591,129,131,125,126,127,128,128,128,0
6594,130,128,127,126,127,129,128,128,0
6598,126,128,127,128,127,130,128,129,0
6601,123,130,126,125,127,128,127,128,0
6613,124,129,126,128,127,128,127,128,0
6618,127,126,125,127,128,128,128,128,0
6621,128,128,124,127,127,128,127,129,0
6625,125,127,126,126,127,130,127,127,0
6628,128,128,128,128,127,126,127,128,0
6631,129,127,129,128,128,127,128,128,0
6634,126,129,125,127,127,129,129,127,0
6638,125,128,127,127,126,128,126,125,0
6641,130,124,134,133,130,120,126,125,0
6644,130,125,129,129,128,129,126,128,0
6648,132,128,127,125,127,130,129,129,0
6652,125,126,132,130,129,122,126,125,0
6655,131,124,132,130,126,129,128,127,0
6661,128,126,129,128,129,127,129,128,0
6666,127,129,124,124,127,129,129,130,0
6669,123,131,125,125,127,126,126,126,0
6673,128,127,129,125,127,128,127,128,0
6677,127,128,125,126,126,128,127,127,0
6681,130,129,129,126,125,130,127,128,0
6686,126,129,128,126,125,130,128,128,0
6689,126,128,129,129,127,129,126,127,0
6693,129,126,128,127,129,128,128,128,0
6696,129,127,128,129,128,130,125,129,0
6699,127,128,126,127,127,128,125,126,0
6702,132,125,133,132,131,122,126,127,0
6705,128,126,128,126,129,127,129,128,0
6709,125,129,125,126,125,129,129,128,0
6768,129,127,127,130,130,123,126,125,0
6780,133,126,131,131,128,129,129,128,0
6789,124,129,125,127,126,129,127,127,0
6793,129,127,129,127,127,130,129,127,0
6797,130,126,129,127,127,132,127,129,0
6835,122,131,126,126,127,128,128,128,0
6847,126,128,127,127,128,127,129,129,0
6854,126,128,125,125,126,130,127,128,0
6859,126,129,125,129,129,123,125,126,0
6865,129,125,134,133,130,122,126,128,0
6901,128,128,127,127,126,128,128,127,0
6914,132,127,127,127,126,130,129,128,0
6925,125,128,125,125,126,129,126,128,0
6968,126,128,128,126,127,129,128,128,0
6979,125,128,125,128,128,126,129,128,0
6988,128,129,125,127,127,128,129,128,0
6994,127,127,127,126,130,121,126,125,0
6999,129,126,132,132,131,122,125,127,0
7037,125,128,130,129,128,129,128,128,0
7046,131,127,125,127,128,128,129,129,0
7052,127,129,124,126,125,130,126,125,0
7059,135,124,131,132,130,122,125,127,0
7065,128,126,127,125,127,128,128,128,0
7071,125,130,125,127,127,128,128,129,0
7076,124,129,124,125,127,129,128,129,0
7083,124,129,125,125,125,128,127,128,0
7088,129,128,126,127,126,127,127,127,0
7091,131,126,128,128,127,129,127,127,0
7095,127,127,128,127,126,129,126,125,0
7098,131,126,131,131,131,122,125,126,0
7102,129,128,129,128,128,128,128,128,0
7105,126,128,127,128,127,130,128,128,0
7108,125,129,126,126,125,131,127,128,0
7112,124,129,126,125,126,130,127,128,0
7115,126,127,126,127,126,129,127,127,0
7118,129,126,129,129,128,128,127,129,0
7122,128,128,125,128,127,129,129,128,0
7125,127,129,125,126,126,128,126,128,0
7127,126,128,126,128,127,125,128,128,0
7132,127,128,126,128,128,126,128,128,0
7136,130,127,129,133,130,123,125,126,0
7142,129,126,132,132,131,121,126,125,0
7146,129,125,128,125,127,128,129,128,0
7149,126,128,124,126,127,128,129,128,0
7152,128,128,124,125,126,130,129,129,0
7155,126,129,128,126,126,131,127,127,0
7159,127,127,128,129,128,127,128,128,0
7162,126,128,125,128,128,126,127,128,0
7165,129,129,126,126,126,129,129,129,0
7169,127,128,128,129,130,121,126,126,0
7172,128,125,132,132,129,127,129,127,0
7175,131,127,127,127,127,129,128,127,0
7178,127,128,129,127,127,130,128,127,0
7182,124,129,128,127,126,131,127,128,0
7185,125,129,125,126,128,128,128,128,0
7188,129,128,125,127,129,127,128,128,0
7240,128,129,125,128,128,128,129,126,0
7252,128,127,128,131,129,123,126,125,0
7259,130,125,132,132,130,123,126,128,0
7306,127,128,130,126,127,129,128,127,0
7315,127,129,127,126,126,129,128,128,0
7323,127,128,126,125,127,125,126,125,0
7330,130,125,132,132,129,126,128,128,0
7334,126,129,125,126,128,127,129,128,0
7338,126,129,123,126,127,128,129,129,0
7343,124,130,124,124,125,129,128,129,0
7347,123,129,125,126,126,128,127,127,0
7351,128,127,129,127,127,129,127,127,0
7355,129,127,127,128,128,129,128,128,0
7361,126,127,131,130,128,124,125,125,0
7365,132,125,134,132,130,121,126,129,0
7369,126,127,127,128,129,128,129,129,0
7373,124,129,125,125,128,128,128,130,0
7376,125,128,124,127,127,129,128,128,0
7379,132,127,126,125,126,129,127,127,0
7382,129,127,130,127,129,128,128,128,0
7385,126,130,127,126,129,129,126,127,0
7389,125,128,128,129,131,122,125,126,0
7393,132,125,132,132,130,122,125,126,0
7397,126,128,125,126,128,129,129,128,0
7400,126,129,124,126,127,128,128,128,0
7404,126,129,124,126,126,131,128,129,0
7407,125,129,126,127,125,130,128,127,0
7411,126,127,128,130,127,128,127,129,0
7413,127,127,126,127,128,127,128,129,0
7416,124,129,124,126,126,129,129,129,0
7419,124,128,128,126,128,128,126,125,0
7423,131,126,133,131,128,127,128,128,0
7427,129,129,125,126,126,129,127,127,0
7431,129,128,127,126,125,130,128,128,0
7434,125,129,126,126,126,128,129,128,0
7441,127,128,126,127,127,127,128,128,0
7444,130,126,126,127,127,128,127,128,0
7447,129,126,130,131,128,125,126,126,0
7451,132,123,135,131,130,123,126,125,0
7454,130,127,127,124,127,128,129,129,0
7457,128,128,127,126,126,129,128,128,0
7463,130,126,127,125,125,131,128,128,0
7466,125,130,128,125,126,130,128,128,0
7472,126,128,129,128,128,127,128,128,0
7478,127,129,125,127,126,127,128,128,0
7483,128,128,128,126,127,128,128,127,0
7487,127,128,128,127,127,129,126,124,0
7490,130,125,133,132,129,124,129,128,0
7493,129,128,125,126,129,127,129,129,0
7497,124,130,125,126,126,130,130,125,0
7507,127,127,131,131,130,121,126,125,0
7511,131,125,128,127,126,130,128,128,0
7515,129,128,129,126,127,130,128,128,0
7518,126,128,128,127,130,129,128,129,0
7522,123,128,128,127,128,125,125,126,0
7525,132,125,128,125,128,128,128,128,0
7528,129,127,125,126,127,128,128,127,0
7532,132,128,129,126,127,130,129,129,0
7536,124,129,129,127,125,130,128,128,0
7539,127,128,126,127,129,127,128,128,0
7542,127,128,124,127,128,127,128,129,0
7545,125,129,124,126,126,129,127,128,0
7548,126,128,125,125,127,122,125,125,0
7552,131,124,134,131,130,121,126,126,0
7575,130,125,129,126,128,130,127,126,0
7580,131,128,127,126,127,130,129,127,0
7584,123,130,126,130,130,122,126,126,0
7588,129,126,133,132,128,127,128,128,0
7592,130,128,125,126,127,128,128,127,0
7640,128,125,127,128,128,131,128,129,0
7651,125,129,124,124,125,131,127,128,0
7661,126,127,129,126,127,128,128,127,0
7673,128,127,126,129,129,127,128,129,0
7678,126,128,124,126,127,129,128,128,0
7682,126,129,125,126,128,123,125,125,0
7685,131,124,132,132,129,124,128,128,0
7688,125,128,127,129,129,128,128,127,0
7692,125,128,126,128,130,129,128,126,0
7695,128,129,124,126,126,130,126,128,0
7698,126,128,128,126,126,129,127,127,0
7701,129,127,126,129,128,128,127,128,0
7705,125,129,126,128,127,128,128,128,0
7708,125,128,124,126,127,129,126,125,0
7712,133,124,133,132,129,121,125,125,0
7715,129,128,123,126,127,128,128,127,0
7718,129,128,126,128,127,129,128,128,0
7721,128,128,123,125,126,130,129,129,0
7725,124,129,126,126,126,129,126,127,0
7728,127,127,128,128,127,129,127,128,0
7732,126,127,128,127,127,128,128,129,0
7735,129,127,125,129,131,123,125,126,0
7739,130,126,135,131,129,121,126,125,0
7742,130,128,126,126,127,128,128,127,0
7745,129,127,130,126,128,129,128,128,0
7748,127,128,126,126,127,129,128,128,0
7751,125,129,129,125,128,129,128,128,0
7753,126,128,128,129,130,126,129,129,0
7756,126,129,125,128,128,127,128,128,0
7761,126,129,125,126,128,130,129,130,0
7764,122,129,126,126,127,126,126,126,0
7767,132,125,130,131,130,129,127,128,0
7770,128,128,129,127,128,128,127,127,0
7774,126,128,126,127,126,126,126,126,0
7777,129,125,132,131,129,121,126,125,0
7780,135,127,126,127,128,128,129,129,0
7786,125,128,126,128,128,128,129,129,0
7791,127,128,123,126,126,129,130,128,0
7796,125,130,125,127,127,130,128,129,0
7801,127,128,126,126,125,128,126,127,0
7804,130,127,127,127,127,130,126,127,0
7807,128,127,126,126,127,129,128,129,0
7810,123,126,134,131,130,123,125,125,0
7813,131,124,131,130,127,129,128,128,0
7816,126,128,126,128,129,128,129,129,0
7819,126,128,123,125,127,128,130,127,0
7823,127,125,129,130,129,126,126,126,0
7826,125,129,129,128,128,128,129,128,0
7830,128,127,126,128,128,127,129,129,0
7833,124,129,124,125,128,129,129,128,0
7835,126,128,125,126,126,131,129,128,0
7838,126,128,132,127,126,128,126,128,0
7841,126,126,129,130,128,128,128,128,0
7846,127,128,125,126,126,127,127,128,0
7849,127,129,126,127,126,130,128,128,0
7853,125,129,126,127,129,128,127,127,0
7856,129,128,127,127,128,127,128,128,0
7859,128,128,127,127,128,123,125,125,0
7862,132,125,132,131,129,123,126,125,0
7865,131,125,134,132,129,123,126,128,0
7868,127,128,130,128,128,128,129,129,0
7871,125,129,126,128,128,129,129,129,0
7875,125,129,125,126,125,131,128,129,0
7877,126,128,130,128,127,128,129,128,0
7880,129,128,124,127,127,127,128,128,0
7884,127,128,127,126,126,129,127,128,0
7887,128,126,130,131,129,121,126,125,0
7891,131,126,131,131,131,123,128,129,0
7897,126,128,125,124,126,129,128,127,0
7901,131,128,126,127,128,128,130,129,0
7905,124,129,123,124,126,129,127,129,0
7909,125,128,127,127,128,128,129,128,0
7912,127,128,125,126,127,128,127,127,0
7915,129,127,127,128,127,129,128,128,0
7918,128,128,125,126,126,128,125,126,0
7925,127,128,125,126,129,127,129,128,0
7922,131,126,132,133,130,121,125,126,0
7928,125,130,124,125,127,128,130,129,0
7933,126,129,124,127,126,132,129,129,0
7937,125,129,129,129,129,124,127,126,0
7940,126,128,125,125,127,126,128,128,0
7943,130,128,126,127,126,128,128,128,0
7946,126,128,126,126,125,130,128,127,0
7950,126,128,127,127,126,129,128,128,0
7954,125,128,126,127,127,127,128,127,0
7957,130,127,128,128,126,129,126,128,0
7959,128,127,127,128,127,130,128,125,0
7963,130,125,134,134,131,121,125,124,0
7966,131,126,129,126,127,129,128,129,0
7968,126,128,130,129,129,129,128,128,0
7973,126,125,126,125,130,130,129,128,0
7976,125,129,125,128,127,128,128,129,0
7980,125,129,126,128,127,128,128,128,0
7983,127,129,126,127,127,127,128,128,0
7986,127,129,126,126,127,129,128,128,0
7990,127,127,128,126,127,130,128,127,0
7994,129,126,128,127,127,127,127,128,0
7997,132,127,127,129,129,128,128,129,0
8002,125,129,127,126,129,128,126,125,0
8006,132,125,133,132,129,122,125,125,0
8011,132,125,133,130,130,126,129,128,0
8015,128,128,127,126,126,129,128,127,0
8021,126,128,128,127,126,130,128,128,0
8027,131,128,127,126,126,130,128,129,0
8030,127,129,127,126,127,128,127,127,0
8034,125,127,130,127,128,126,127,128,0
8037,125,127,130,127,127,128,129,128,0
8040,126,129,127,126,126,130,128,129,0
8043,127,125,133,132,131,120,125,125,0
8047,130,128,125,126,129,126,129,128,0
8051,128,127,125,125,126,128,126,126,0
8054,129,128,130,132,130,122,126,125,0
8056,129,126,131,131,128,128,130,126,0
8059,131,127,125,125,126,130,128,128,0
8063,126,128,124,126,126,130,129,129,0
8067,129,128,126,126,126,130,130,129,0
8070,125,129,125,126,126,128,127,127,0
8073,131,127,127,126,127,128,127,128,0
8076,128,128,129,128,125,130,127,128,0
8080,125,130,124,126,126,131,128,129,0
8083,125,129,126,126,127,127,128,128,0
8086,126,128,127,127,128,127,128,128,0
8088,128,128,125,128,127,128,128,128,0
8091,125,129,125,127,126,129,128,126,0
8094,130,125,134,133,130,121,125,125,0
8097,128,128,125,127,127,127,128,127,0
8100,130,127,128,127,126,129,127,128,0
8104,128,126,132,132,129,123,126,124,0
8107,132,125,130,131,130,123,128,128,0
8110,125,128,129,128,127,130,129,128,0
8114,126,128,129,128,127,130,128,128,0
8120,124,128,125,128,127,130,131,128,0
8128,125,129,124,125,126,130,127,128,0
8134,127,127,127,129,129,128,127,128,0
8137,128,127,130,129,129,128,129,129,0
8139,125,129,129,128,126,130,127,127,0
8142,127,128,127,128,128,129,127,126,0
8145,131,127,129,128,128,129,127,128,0
8147,125,129,126,129,128,127,129,126,0
8150,130,125,132,132,130,121,126,124,0
8153,130,127,132,132,130,122,126,125,0
8156,125,128,127,128,129,128,129,128,0
8160,125,129,124,126,127,128,128,128,0
8164,128,128,125,125,128,130,128,128,0
8167,124,129,125,126,125,129,127,127,0
8170,127,127,129,127,128,127,127,128,0
8173,128,126,127,126,129,127,129,128,0
8175,127,128,127,126,128,130,127,127,0
8179,129,128,126,126,127,129,129,127,0
8182,123,129,127,127,128,127,128,129,0
8186,126,128,128,128,126,129,126,128,0
8189,126,128,126,126,129,124,125,124,0
8193,131,125,135,132,131,122,125,124,0
8196,132,125,129,126,127,129,128,128,0
8199,128,126,130,128,128,128,129,128,0
8201,125,128,125,125,127,127,128,127,0
8204,129,124,134,132,129,125,125,126,0
8208,124,127,128,127,128,128,128,129,0
8210,129,129,126,127,129,128,129,128,0
8213,128,128,126,125,126,131,128,128,0
8216,127,127,126,126,125,128,128,129,0
8220,130,128,124,126,125,127,128,128,0
8224,129,127,130,129,128,129,127,129,0
8228,128,128,129,128,128,129,129,128,0
8234,124,128,126,126,127,129,127,128,0
8238,127,129,125,127,127,127,128,128,0
8241,128,128,127,127,129,126,126,128,0
8244,125,129,127,128,127,129,128,126,0
8247,128,125,134,133,131,123,125,124,0
8250,136,123,132,130,129,127,129,128,0
8253,131,127,124,126,126,128,128,129,0
8256,127,130,125,124,127,130,129,127,0
8259,125,130,125,125,126,129,128,129,0
8262,124,128,127,126,127,128,127,128,0
8265,126,127,127,130,129,127,127,129,0
8269,126,129,124,128,127,129,129,128,0
8272,127,125,133,132,129,124,125,125,0
8275,131,126,132,133,129,124,128,128,0
8278,125,127,128,127,127,127,128,128,0
8282,128,129,123,126,124,129,130,129,0
8285,126,129,124,125,124,131,126,126,0
8288,129,127,128,129,126,129,128,128,0
8292,128,128,126,128,128,126,128,129,0
8297,126,129,124,126,126,128,129,129,0
8301,126,128,124,125,125,130,128,126,0
8304,129,126,129,131,129,126,128,128,0
8306,127,128,125,126,127,127,127,127,0
8309,127,128,130,127,127,129,127,129,0
8314,126,129,127,125,126,130,126,126,0
8317,127,126,132,132,130,121,126,128,0
8320,126,129,124,129,128,126,128,128,0
8324,126,128,124,126,126,129,128,128,0
8327,133,128,126,126,126,130,127,128,0
8330,122,129,126,126,128,129,128,128,0
8336,126,128,125,126,129,127,129,128,0
8340,127,130,125,126,127,127,128,128,0
8344,127,129,127,126,127,130,126,124,0
8346,131,125,131,131,130,121,124,125,0
8350,133,125,130,128,130,128,129,128,0
8353,124,129,126,128,128,128,129,128,0
8356,124,129,124,126,126,130,130,128,0
8361,125,127,130,131,128,125,126,125,0
8365,130,128,126,126,127,128,128,128,0
8368,129,127,129,126,128,129,127,128,0
8372,128,125,128,131,130,126,126,126,0
8377,128,126,131,129,128,129,130,128,0
8379,128,129,126,127,127,129,127,127,0
8382,131,127,130,125,128,130,128,128,0
8386,128,128,129,126,128,130,127,129,0
8389,127,126,132,133,131,122,125,125,0
8392,131,126,128,125,127,129,128,128,0
8395,127,128,129,126,128,129,128,129,0
8398,124,130,124,126,126,129,127,129,0
8403,126,128,127,125,125,130,127,127,0
8406,128,127,129,129,129,128,129,129,0
8409,124,129,125,126,127,127,127,128,0
8413,125,128,125,126,125,128,128,129,0
8416,124,127,134,132,131,122,125,126,0
8420,134,124,130,125,127,127,129,128,0
8423,129,128,126,128,127,128,130,129,0
8426,126,129,126,126,126,130,126,128,0
8429,127,129,127,125,126,130,127,127,0
8432,126,127,126,126,127,128,128,128,0
8435,130,128,128,127,128,127,127,128,0
8441,127,126,127,127,128,130,128,127,0
8443,131,124,133,132,131,121,126,125,0
8448,130,125,132,130,127,127,129,128,0
8453,129,128,125,126,127,129,127,127,0
8456,130,128,127,127,126,130,128,128,0
8459,126,128,127,124,126,131,128,128,0
8462,127,128,127,128,128,128,126,128,0
8464,126,128,125,128,128,126,128,128,0
8467,127,129,124,126,126,129,128,128,0
8470,129,124,133,131,130,123,125,124,0
8476,131,124,133,131,126,127,128,128,0
8479,131,127,125,125,127,129,128,128,0
8483,130,130,126,126,127,131,128,128,0
8486,124,129,126,126,127,131,129,129,0
8489,124,129,125,126,127,127,128,128,0
8492,128,128,127,127,126,128,127,127,0
8495,129,127,129,127,126,129,127,127,0
8498,126,128,126,125,128,125,125,125,0
8501,133,125,131,132,131,121,125,128,0
8504,126,129,125,126,128,127,128,128,0
8507,129,128,126,126,126,130,127,127,0
8510,126,128,125,126,126,130,128,128,0
8513,125,128,126,125,127,128,128,129,0
8516,127,128,127,127,128,128,127,128,0
8519,127,128,127,127,128,128,129,129,0
8523,125,128,126,127,127,123,125,126,0
8525,130,124,133,132,131,123,125,126,0
8528,129,126,128,128,128,129,128,128,0
8531,127,127,129,129,128,128,129,128,0
8534,126,127,125,128,128,125,126,126,0
8537,130,126,131,129,129,124,127,126,0
8540,125,129,125,126,126,128,128,129,0
8544,125,129,125,125,127,127,128,129,0
8549,127,128,127,126,126,131,127,128,0
8552,127,128,125,125,127,128,128,128,0
8555,127,128,127,127,126,129,126,128,0
8558,128,128,130,128,128,128,126,129,0
8561,127,127,130,134,130,123,125,126,0
8564,130,125,134,132,130,122,125,125,0
8567,127,127,125,128,128,128,128,128,0
8570,126,129,126,127,126,129,127,129,0
8574,130,125,129,125,127,130,128,128,0
8577,128,129,126,124,126,131,129,129,0
8579,126,128,126,127,128,128,128,128,0
8583,128,127,128,127,129,127,129,129,0
8586,126,129,125,128,126,131,128,129,0
8589,126,129,126,126,126,130,126,128,0
8591,129,127,127,127,128,127,128,127,0
8598,128,128,127,128,127,128,127,128,0
8606,128,128,128,127,127,130,129,125,0
8609,130,125,133,132,130,122,124,125,0
8612,132,124,132,130,126,129,127,127,0
8615,125,128,126,129,130,128,128,128,0
8618,126,128,124,125,128,129,129,128,0
8621,127,128,125,125,125,128,126,125,0
8624,130,125,130,127,127,127,128,128,0
8628,127,128,128,126,128,128,128,128,0
8631,126,128,127,125,127,130,128,128,0
8635,126,127,134,132,130,121,125,125,0
8638,130,125,130,128,130,127,129,128,0
8642,127,128,125,125,127,127,128,128,0
8644,131,128,125,125,127,129,130,129,0
8649,124,129,128,131,129,121,126,125,0
8652,131,126,129,126,126,128,128,128,0
8656,127,129,126,127,126,127,129,128,0
8661,129,127,126,125,126,131,129,128,0
8665,127,126,128,125,125,131,128,127,0
8668,126,129,127,126,127,127,129,128,0
8671,128,128,125,127,128,127,128,128,0
8675,126,129,126,126,125,129,127,128,0
8678,129,126,134,133,130,122,126,126,0
8681,130,125,132,132,128,128,129,129,0
8684,126,128,125,127,128,127,128,128,0
8687,126,129,125,125,126,129,127,128,0
8691,125,129,127,127,125,130,127,129,0
8694,127,128,128,127,127,128,127,127,0
8697,132,126,125,127,129,128,128,128,0
8700,127,129,126,127,127,128,128,127,0
8703,125,128,126,126,126,130,127,128,0
8706,126,127,135,132,130,121,124,125,0
8708,126,128,126,126,129,126,128,128,0
8714,129,127,125,127,126,129,127,128,0
8717,127,129,124,127,126,130,129,129,0
8720,126,129,125,127,126,128,127,127,0
8723,128,128,125,127,126,127,127,127,0
8726,129,126,128,129,128,130,126,128,0
8728,129,129,127,127,127,130,127,124,0
8733,129,125,133,132,130,121,125,125,0
8736,127,128,128,127,127,130,127,127,0
8739,132,127,128,129,128,130,127,128,0
8741,129,129,125,126,126,129,128,128,0
8744,125,128,129,130,128,125,126,126,0
8747,128,128,128,129,129,127,129,128,0
8750,126,128,125,126,127,127,129,129,0
8755,128,128,127,125,127,129,129,129,0
8760,127,125,133,132,130,121,125,125,0
8764,128,128,130,129,129,128,129,128,0
8767,129,127,129,129,128,128,129,129,0
8770,124,129,126,126,128,130,128,129,0
8773,125,129,128,126,127,127,128,129,0
8775,126,129,125,127,128,126,128,128,0
8779,127,127,128,127,127,128,128,128,0
8782,130,128,128,127,126,130,126,125,0
8785,134,123,132,131,130,122,125,125,0
8788,129,127,124,126,127,127,128,128,0
8791,127,129,128,127,126,129,126,127,0
8794,126,128,127,126,127,130,129,126,0
8797,130,126,129,130,129,122,125,124,0
8799,131,125,127,126,127,129,128,127,0
8806,125,129,124,125,126,128,130,129,0
8803,130,128,128,128,128,128,129,129,0
8809,125,129,125,124,127,130,128,129,0
8813,124,128,126,128,127,126,128,128,0
8816,129,127,127,127,127,129,127,127,0
8819,127,128,126,128,126,130,128,128,0
8823,125,128,126,126,126,129,129,129,0
8826,124,129,127,127,128,125,128,128,0
8829,127,127,126,129,128,127,128,128,0
8832,130,128,126,127,128,127,126,124,0
8835,132,125,133,132,130,122,126,125,0
8838,131,125,129,125,127,127,129,128,0
8840,125,126,129,128,128,129,129,128,0
8843,127,129,125,124,126,128,129,129,0
8846,124,129,127,125,124,129,128,128,0
8849,126,127,126,126,128,127,127,127,0
8854,128,128,127,127,127,127,128,128,0
8857,128,127,126,126,128,130,126,126,0
8861,131,125,131,132,130,122,125,125,0
8867,130,126,132,130,126,130,127,127,0
8870,130,126,127,126,126,129,128,128,0
8873,127,129,126,124,127,130,128,128,0
8876,125,126,126,126,125,131,128,127,0
8880,126,128,126,126,125,129,127,127,0
8883,127,127,130,130,129,127,129,128,0
8886,124,128,127,129,127,128,128,129,0
8890,127,128,125,125,127,129,130,129,0
8893,127,127,127,126,128,128,128,128,0
8896,130,128,127,127,128,127,128,127,0
8901,131,128,127,126,128,129,126,128,0
8903,124,129,125,126,126,130,128,127,0
8906,130,124,134,133,131,121,125,124,0
8909,129,128,126,126,127,128,128,128,0
8911,127,128,127,127,127,130,128,128,0
8915,126,127,127,126,127,130,128,127,0
8917,125,128,125,128,127,128,127,128,0
8928,129,127,124,127,128,127,128,127,0
8931,127,129,125,126,126,128,128,127,0
8935,125,128,128,128,126,125,125,125,0
8938,131,124,134,132,130,121,125,126,0
8943,129,128,126,125,127,128,129,128,0
8946,127,128,126,126,128,129,129,128,0
8951,127,127,130,129,128,125,126,126,0
8956,132,125,132,132,130,124,126,128,0
8959,126,129,127,127,126,129,128,128,0
8962,130,126,127,128,130,127,129,129,0
8966,126,130,124,125,126,130,130,127,0
8970,125,130,125,125,125,130,126,127,0
8976,126,126,130,130,128,128,128,128,0
8982,128,127,129,127,129,129,128,129,0
8985,123,130,124,126,127,130,129,128,0
8989,127,125,135,131,130,122,126,125,0
8992,128,128,129,128,128,128,129,128,0
8996,127,127,125,126,126,129,127,127,0
8999,132,128,127,126,127,130,128,129,0
9002,125,127,127,125,127,129,127,128,0
9005,127,128,125,127,126,126,127,128,0
9009,129,128,127,128,126,129,126,128,0
9012,125,129,127,127,127,128,128,128,0
9016,125,127,127,128,128,123,124,125,0
9019,134,125,132,131,128,126,129,128,0
9022,127,129,124,127,127,127,128,128,0
9026,127,128,124,127,127,129,130,125,0
9029,133,122,135,131,130,122,126,125,0
9033,130,126,124,127,130,128,129,128,0
9036,126,129,126,125,128,129,128,128,0
9039,125,129,125,127,127,129,128,128,0
9044,129,128,127,127,126,128,128,129,0
9047,127,129,125,127,127,127,128,127,0
9050,130,129,128,127,128,128,126,128,0
9053,124,128,125,126,130,125,125,126,0
9055,129,125,133,132,129,122,126,125,0
9060,131,125,128,127,129,128,130,129,0
9064,128,128,128,128,129,129,129,128,0
9068,128,127,126,125,126,131,129,129,0
9070,127,129,125,126,126,129,129,129,0
9075,123,130,126,128,128,126,127,127,0
9077,126,128,126,128,127,127,129,128,0
9081,131,128,125,126,126,130,127,128,0
9087,129,129,126,126,128,122,125,125,0
9093,131,125,132,131,128,128,128,128,0
9097,126,128,127,130,128,128,128,128,0
9101,126,128,128,128,127,128,128,129,0
9104,128,128,126,126,125,130,128,129,0
9107,125,128,129,126,129,128,128,128,0
9112,125,127,128,127,128,126,129,127,0
9117,129,128,127,127,126,127,127,128,0
9120,127,127,127,126,128,121,126,126,0
9124,128,126,132,133,131,122,128,129,0
9127,127,129,124,126,127,127,129,127,0
9130,130,128,125,126,124,129,129,128,0
9133,126,129,130,127,125,131,129,129,0
9137,123,128,130,134,131,121,125,127,0
9140,128,128,127,129,129,127,129,128,0
9144,126,127,125,127,130,130,129,128,0
9147,126,129,126,125,127,130,130,126,0
9151,131,124,134,132,131,123,127,128,0
9154,125,129,125,127,127,129,128,127,0
9157,130,127,126,128,129,129,129,128,0
9161,124,127,125,126,125,132,127,128,0
9164,125,129,126,126,127,127,127,128,0
9167,129,128,127,127,128,129,126,127,0
9171,129,127,128,128,127,128,128,127,0
9174,126,128,126,127,129,121,125,125,0
9177,130,125,131,130,132,121,125,126,0
9180,125,129,124,126,129,126,128,128,0
9184,128,125,130,129,128,128,128,129,0
9186,126,127,129,127,125,130,128,129,0
9189,126,129,128,129,129,123,126,125,0
9193,127,128,126,127,127,128,127,127,0
9197,127,127,130,128,129,127,128,128,0
9203,126,128,127,128,126,130,128,125,0
9206,129,125,132,132,131,123,125,125,0
9210,127,126,127,126,127,129,127,127,0
9213,128,128,130,128,126,130,128,128,0
9216,128,129,125,124,127,130,130,129,0
9219,124,129,126,125,127,129,128,128,0
9221,126,128,126,126,128,127,127,128,0
9224,126,128,126,128,127,127,128,129,0
9227,132,125,130,129,128,124,127,126,0
9230,126,128,129,130,129,124,126,126,0
9234,129,127,125,127,127,126,130,128,0
9236,131,129,130,126,127,129,127,128,0
9239,125,129,129,126,128,130,126,128,0
9242,127,128,127,128,127,129,129,129,0
9245,125,129,126,127,127,127,127,127,0
9248,126,129,126,128,128,127,128,128,0
9252,126,129,125,126,128,130,127,128,0
9254,126,126,132,133,130,121,126,125,0
9258,130,125,133,131,127,127,127,128,0
9261,129,127,124,127,127,127,128,128,0
9264,130,126,125,126,125,131,128,128,0
9268,128,130,127,126,126,130,128,129,0
9272,125,129,131,127,128,128,127,128,0
9274,127,129,127,127,129,127,129,129,0
9277,126,129,126,126,127,130,127,127,0
9281,129,128,125,127,127,129,128,129,0
9284,127,128,126,127,127,127,127,128,0
9288,126,128,126,129,128,127,129,128,0
9293,127,128,127,127,128,129,128,124,0
9299,133,125,132,131,129,123,125,125,0
9304,130,124,134,132,129,125,129,128,0
9309,125,128,125,127,126,128,127,127,0
9314,130,127,125,126,126,129,127,128,0
9317,127,128,129,129,128,125,127,126,0
9322,130,126,131,129,126,128,128,128,0
9325,128,128,127,127,127,129,127,127,0
9328,130,127,128,126,126,131,126,128,0
9332,125,128,127,128,125,131,128,128,0
9335,125,128,129,130,129,123,126,128,0
9338,133,125,128,127,128,129,127,128,0
9340,124,128,126,128,128,128,126,129,0
9344,130,126,129,133,129,123,125,125,0
9347,130,125,132,132,128,129,127,128,0
9350,127,126,127,128,129,128,128,129,0
9354,127,129,125,125,128,129,128,129,0
9357,126,129,126,125,125,132,128,129,0
9360,123,128,127,126,127,128,128,128,0
9363,127,128,125,128,127,127,127,127,0
9366,131,127,127,127,126,130,128,128,0
9369,127,127,127,128,128,124,126,125,0
9371,129,126,134,132,129,122,126,128,0
9374,125,128,125,124,128,128,127,128,0
9378,127,128,126,128,127,129,128,128,0
9381,124,129,125,125,125,132,127,128,0
9385,126,129,125,126,125,130,128,128,0
9387,127,128,126,127,128,126,128,128,0
9390,128,128,125,127,125,128,128,127,0
9393,129,127,127,127,126,129,129,129,0
9397,127,129,126,126,128,126,128,125,0
9400,127,127,131,131,129,128,128,128,0
9404,125,128,125,127,128,128,129,129,0
9410,129,127,126,129,129,123,126,126,0
9414,131,126,134,131,130,123,126,126,0
9417,127,128,129,126,127,128,128,127,0
9421,128,129,129,128,128,129,128,129,0
9423,125,129,125,123,125,129,127,128,0
9426,123,126,128,127,127,129,128,127,0
9431,133,127,128,127,127,129,126,127,0
9434,128,128,130,129,128,129,127,128,0
9437,125,127,127,128,128,128,125,126,0
9440,130,125,133,131,130,121,125,124,0
9444,130,128,127,127,127,128,129,129,0
9447,125,128,128,128,128,128,128,128,0
9450,125,129,125,125,126,131,128,129,0
9454,126,128,125,124,126,128,128,128,0
9457,130,129,126,127,126,127,127,128,0
9461,131,128,128,128,127,127,128,128,0
9465,127,129,125,126,126,128,128,128,0
9468,125,128,126,127,126,129,128,128,0
9471,127,128,125,127,127,127,128,128,0
9474,129,129,127,128,129,128,129,126,0
9477,129,128,126,127,126,129,127,128,0
9479,126,128,131,132,131,121,125,125,0
9482,130,126,132,133,131,124,128,128,0
9486,126,128,126,127,127,128,127,127,0
9489,129,125,126,126,126,129,129,128,0
9492,128,125,130,133,130,123,126,126,0
9494,130,125,131,129,127,130,129,128,0
9498,129,126,128,128,127,130,127,127,0
9502,127,129,126,124,125,131,127,127,0
9506,127,129,126,126,127,131,127,128,0
9509,124,129,129,128,130,128,127,128,0
9514,130,126,130,128,129,128,127,127,0
9519,127,127,128,129,127,129,129,128,0
9525,129,125,130,133,131,122,126,125,0
9528,130,127,131,133,130,124,129,129,0
9532,123,130,126,127,128,128,128,129,0
9535,127,128,124,125,126,129,128,128,0
9538,130,130,129,126,126,132,127,125,0
9542,126,127,129,131,128,128,128,128,0
9546,128,127,128,128,129,127,128,128,0
9550,128,128,124,126,126,128,128,128,0
9553,126,128,127,127,127,130,128,127,0
9556,125,127,130,131,129,124,124,128,0
9559,127,129,125,127,127,127,127,127,0
9563,133,126,126,126,126,131,128,129,0
9566,125,130,125,126,126,131,127,129,0
9570,124,129,126,125,126,128,127,128,0
9573,129,127,129,128,128,128,128,128,0
9577,126,128,128,128,128,129,129,128,0
9581,125,127,128,128,127,130,128,124,0
9585,129,124,133,132,130,121,125,124,0
9588,133,126,127,129,129,126,129,127,0
9591,130,127,126,126,126,129,128,128,0
9595,129,130,128,128,129,125,127,127,0
9598,126,128,133,132,129,120,125,127,0
9602,126,127,129,128,128,128,129,129,0
9605,126,129,124,125,126,128,130,129,0
9608,126,129,124,124,125,131,130,129,0
9611,125,130,125,126,126,131,126,128,0
9614,125,128,126,128,127,128,127,127,0
9617,131,126,127,126,126,129,126,128,0
9620,129,129,126,126,127,126,125,125,0
9625,129,125,134,133,129,121,124,125,0
9629,127,125,130,128,127,129,129,128,0
9633,127,129,126,127,128,128,130,129,0
9636,124,130,123,128,127,128,126,126,0
9638,127,128,130,130,129,125,126,126,0
9641,129,128,125,128,128,127,131,129,0
9644,124,129,126,127,126,128,128,128,0
9647,127,128,126,126,125,131,127,128,0
9651,131,127,129,128,128,129,128,128,0
9655,129,126,126,125,128,127,128,128,0
9659,127,129,126,127,127,128,127,128,0
9667,126,129,131,133,130,123,125,125,0
9663,126,129,128,126,126,129,126,128,0
9669,132,127,129,128,127,129,127,128,0
9674,126,128,130,129,129,127,129,128,0
9677,124,130,124,127,126,130,128,128,0
9681,129,125,132,131,130,121,126,125,0
9685,132,125,127,128,128,128,128,128,0
9689,126,128,127,128,128,128,129,128,0
9692,127,128,124,126,125,130,129,129,0
9695,128,126,125,127,127,129,129,128,0
9698,124,128,130,127,127,128,128,127,0
9701,129,128,127,127,127,127,128,128,0
9704,129,128,125,125,127,129,129,129,0
9707,125,129,125,126,125,128,126,126,0
9709,129,125,133,132,130,122,125,127,0
9713,128,127,128,127,127,129,128,128,0
9717,129,128,130,128,127,130,127,128,0
9720,125,127,125,127,128,121,126,126,0
9724,132,125,133,132,128,128,128,127,0
9729,130,127,127,127,128,129,128,128,0
9735,125,129,129,127,128,129,129,129,0
9739,125,128,126,127,127,130,129,129,0
9745,125,128,128,129,127,128,127,128,0
9749,127,127,128,128,129,125,129,129,0
9751,127,130,125,127,126,130,127,129,0
9755,128,128,128,127,127,128,125,126,0
9757,131,124,134,133,131,121,125,128,0
9760,126,127,128,128,129,127,128,128,0
9763,126,129,124,128,127,128,130,128,0
9767,127,129,126,126,126,130,128,128,0
9771,125,129,127,126,127,126,128,128,0
9774,126,129,126,127,127,127,128,128,0
9776,127,127,127,128,128,128,129,127,0
9779,126,128,125,127,126,130,129,125,0
9781,130,125,133,132,131,121,125,125,0
9785,128,128,124,126,126,127,128,127,0
9787,134,125,128,126,125,130,127,128,0
9790,128,129,127,126,125,130,128,129,0
9795,125,129,128,128,127,129,128,129,0
9798,126,128,126,127,129,128,128,128,0
9801,128,128,127,128,127,128,127,128,0
9805,125,128,128,126,130,123,125,125,0
9807,131,125,131,131,129,120,125,125,0
9810,129,127,130,128,128,128,129,129,0
9814,126,128,126,127,127,129,129,129,0
9817,125,128,125,125,126,129,128,129,0
9821,125,129,125,129,129,124,125,126,0
9825,128,128,125,125,128,126,128,128,0
9828,128,129,126,127,126,129,127,128,0
9832,131,127,125,125,127,129,128,130,0
9837,127,125,132,132,130,121,126,126,0
9844,130,128,126,127,127,129,127,127,0
9847,129,128,126,126,126,129,128,128,0
9850,127,127,128,129,126,131,127,128,0
9853,127,127,130,129,129,125,126,126,0
9856,129,127,129,128,128,129,128,129,0
9859,125,129,125,126,127,128,128,128,0
9862,128,128,125,126,126,131,128,128,0
9865,124,128,127,127,129,130,127,129,0
9868,125,128,130,127,126,127,127,127,0
9871,129,126,129,126,128,129,127,128,0
9874,126,129,125,127,126,128,127,128,0
9877,125,129,126,126,127,129,128,127,0
9879,129,124,133,132,130,123,126,127,0
9884,131,126,129,129,129,127,128,128,0
9887,127,129,124,125,127,130,129,129,0
9890,122,130,129,132,130,122,126,125,0
9893,134,126,128,127,126,129,128,127,0
9897,127,127,130,129,128,129,127,128,0
9900,127,128,128,127,126,130,127,128,0
9904,126,128,127,124,128,121,125,125,0
9906,131,126,131,129,127,129,128,128,0
9909,128,126,130,127,127,129,128,128,0
9912,126,128,126,127,127,129,128,125,0
9916,125,129,124,126,125,129,126,124,0
9919,130,124,132,131,126,127,128,128,0
9925,127,129,125,126,126,130,128,129,0
9921,129,128,125,126,127,128,127,128,0
9928,127,128,126,125,126,130,128,128,0
9931,126,128,127,128,128,126,128,128,0
9937,126,128,124,128,129,127,128,127,0
9940,130,128,124,127,127,129,129,129,0
9948,125,129,128,126,125,130,128,128,0
9953,126,128,131,132,130,121,125,124,0
9957,131,127,125,127,127,128,128,128,0
9961,124,130,124,126,125,129,128,129,0
9964,128,128,126,129,130,123,125,126,0
9966,131,125,133,132,129,125,129,129,0
9969,128,129,125,126,127,128,128,128,0
9972,129,128,126,126,126,130,128,127,0
9974,128,128,125,124,126,129,128,128,0
9977,127,128,131,127,127,128,126,127,0
9980,128,127,129,128,129,126,129,129,0
9983,126,128,127,126,128,128,128,128,0
9987,125,127,126,126,127,130,129,128,0
9989,130,126,132,131,131,121,125,124,0
9994,128,128,127,126,127,126,128,128,0
9996,127,128,125,126,126,127,129,129,0
9999,126,129,126,125,126,130,127,128,0
10002,126,128,128,126,126,129,126,127,0
10005,128,127,131,129,127,128,127,128,0
10008,129,126,128,127,127,128,128,126,0
10018,128,128,130,132,129,123,125,125,0
10022,129,127,133,132,132,123,125,125,0
10025,122,128,126,127,127,127,129,128,0
10027,132,127,126,126,127,130,127,129,0
10032,126,128,129,127,126,130,127,128,0
10035,125,129,130,128,127,130,128,128,0
10039,127,128,126,129,130,127,130,128,0
10044,126,129,124,128,127,128,129,128,0
10047,126,128,125,129,129,125,126,126,0
10050,128,127,132,132,131,121,126,125,0
10055,129,128,124,126,126,128,128,128,0
10061,127,128,125,125,127,128,128,128,0
10064,129,127,129,125,125,132,128,128,0
10067,126,128,127,124,127,130,127,128,0
10070,124,128,128,127,129,128,127,129,0
10073,128,126,128,129,129,128,128,129,0
10076,130,127,129,126,127,128,126,128,0
10080,125,129,126,127,127,130,129,129,0
10087,125,128,126,127,129,127,128,127,0
10092,126,128,127,129,129,128,128,128,0
10096,126,128,125,128,127,129,126,124,0
10100,131,125,132,131,130,121,126,125,0
10103,131,124,131,129,128,129,128,128,0
10107,127,127,126,127,128,127,129,127,0
10110,130,126,128,126,125,131,129,125,0
10113,129,126,131,129,127,125,126,126,0
10116,128,125,128,128,131,127,129,129,0
10128,126,129,126,128,129,127,129,129,0
10132,127,129,125,125,126,129,128,127,0
10135,124,129,125,124,126,129,129,129,0
10139,126,129,130,126,127,128,127,128,0
10147,128,128,128,127,129,126,128,128,0
10150,127,129,125,126,127,128,128,128,0
10154,128,126,131,132,130,123,126,126,0
10157,130,126,133,130,128,126,129,128,0
10161,126,128,124,125,127,128,129,128,0
10164,130,128,126,126,126,131,128,128,0
10167,128,127,127,124,127,125,126,127,0
10172,125,127,128,128,128,128,128,129,0
10176,126,129,126,125,128,126,128,128,0
10182,128,128,126,127,127,130,127,128,0
10188,126,128,130,126,127,127,125,126,0
10193,129,125,132,132,128,129,127,127,0
10196,131,128,127,126,128,129,128,127,0
10199,130,126,128,127,126,130,128,129,0
10203,126,128,129,126,126,130,126,127,0
10206,128,126,130,131,129,124,126,128,0
10209,127,128,128,128,128,129,128,128,0
10212,132,127,124,127,127,130,129,129,0
10216,126,129,125,125,126,131,128,128,0
10219,124,129,125,125,128,127,128,128,0
10222,128,128,125,127,126,126,128,127,0
10226,128,128,126,127,127,128,128,125,0
10229,135,125,132,132,130,123,125,125,0
10233,131,125,133,131,129,123,126,128,0
10238,126,130,128,127,126,129,128,128,0
10241,127,126,130,127,127,129,129,128,0
10244,126,128,126,125,126,131,129,129,0
10246,128,127,126,126,126,129,127,128,0
10250,126,128,128,127,129,127,128,128,0
10253,126,129,124,128,128,127,129,128,0
10257,126,128,126,127,127,130,129,129,0
10269,124,130,126,127,125,129,127,128,0
10274,126,128,126,129,129,127,128,128,0
10294,130,126,126,127,128,128,128,128,0
10298,128,129,126,126,126,130,127,127,0
10302,133,126,132,133,131,120,125,124,0
10306,129,125,131,129,128,127,129,128,0
10309,128,130,124,127,128,126,129,129,0
10312,127,128,126,126,126,130,127,126,0
10318,131,125,134,132,130,122,125,125,0
10324,127,129,126,128,127,126,128,128,0
10329,126,128,126,126,126,129,128,128,0
10333,133,128,127,124,127,130,129,129,0
10336,123,129,128,130,128,126,126,126,0
10339,131,125,130,128,128,127,129,128,0
10342,124,130,125,126,126,129,128,127,0
10346,126,128,127,125,126,130,128,127,0
10349,125,128,125,125,127,130,128,128,0
10352,129,128,127,127,127,127,127,128,0
10355,127,128,126,128,128,128,127,129,0
10358,125,129,125,126,126,129,127,128,0
10360,126,127,126,128,130,122,124,125,0
10363,131,126,130,131,127,127,128,127,0
10366,128,129,127,127,127,129,127,128,0
10369,128,127,127,126,128,129,128,128,0
10372,126,128,128,127,127,129,127,128,0
10375,129,125,132,131,129,124,127,128,0
10380,126,128,126,128,128,127,127,128,0
10386,125,129,127,128,128,124,124,125,0
10390,132,124,131,130,129,121,125,126,0
10393,130,125,128,126,126,127,128,128,0
10396,127,128,126,125,127,130,128,127,0
10400,133,125,129,125,126,131,128,128,0
10403,124,129,126,127,128,126,125,126,0
10407,128,126,129,125,130,127,129,128,0
10410,126,128,126,125,128,127,129,128,0
10413,129,127,124,125,126,130,128,128,0
10416,126,129,127,126,126,127,126,126,0
10419,128,127,129,127,127,127,129,129,0
10424,127,128,125,127,128,126,129,129,0
10429,126,128,127,127,126,130,128,129,0
10434,125,129,128,127,126,128,126,126,0
10437,130,126,130,129,127,126,128,128,0
10439,129,128,125,126,126,128,127,127,0
10443,129,128,125,126,126,129,127,128,0
10446,126,127,127,127,126,131,127,128,0
10474,125,129,127,125,129,128,128,129,0
10479,127,128,127,127,127,127,127,127,0
10483,126,128,128,128,128,128,128,128,0
10487,128,124,134,132,130,121,125,126,0
10490,130,125,133,131,130,122,126,128,0
10493,129,127,125,127,128,128,128,128,0
10497,130,129,127,126,126,130,128,129,0
10500,126,128,128,128,126,130,129,129,0
10504,126,128,125,126,126,128,129,128,0
10507,131,125,128,127,127,127,128,128,0
10512,125,129,127,128,128,129,127,127,0
10515,127,128,128,126,126,129,128,128,0
10518,125,128,128,127,129,121,125,124,0
10526,132,125,129,127,127,129,126,126,0
10530,129,127,130,128,128,129,128,128,0
10534,125,129,124,126,126,130,129,128,0
10537,126,127,125,125,126,129,127,127,0
10540,129,128,128,128,127,129,128,127,0
10544,128,129,126,127,126,127,128,128,0
10547,127,128,128,127,127,128,125,125,0
10550,130,125,134,132,130,121,126,125,0
10553,131,126,128,128,129,127,129,128,0
10557,132,126,126,125,126,130,127,128,0
10561,130,129,128,125,127,129,126,125,0
10576,130,125,131,131,130,123,125,125,0
10580,125,129,128,127,128,129,129,128,0
10583,131,126,128,127,129,129,129,129,0
10619,122,129,127,127,127,129,129,129,0
10624,124,128,126,127,128,126,125,126,0
10628,129,129,126,126,129,127,128,128,0
10632,131,128,126,125,126,130,127,129,0
10636,123,129,127,126,126,130,124,129,0
10639,123,128,126,126,126,128,125,128,0
10642,127,129,127,129,128,127,124,128,0
10645,127,128,128,128,127,128,123,127,0
10649,128,128,127,127,126,129,123,128,0
10652,129,126,133,131,130,123,122,124,0
10656,133,125,130,129,128,128,124,128,0
10659,124,129,126,127,127,128,122,127,0
10663,132,127,130,126,126,128,124,129,0
10666,124,128,126,125,127,130,124,128,0
10670,126,128,128,127,127,129,125,128,0
10673,128,127,127,127,129,127,125,128,0
10676,126,129,127,128,126,130,126,128,0
10680,124,128,127,126,127,130,126,128,0
10689,129,128,126,127,127,127,127,128,0
10693,126,129,127,128,127,127,128,128,0
10696,127,127,126,128,127,128,124,125,0
10699,131,124,133,132,131,123,125,125,0
10703,132,124,132,132,129,128,127,127,0
10706,128,128,129,129,127,129,129,127,0
10803,125,129,129,127,127,129,127,129,0
10808,128,126,125,124,126,131,128,129,0
10812,129,129,126,125,127,128,130,128,0
10817,124,128,127,126,128,126,128,128,0
10820,127,129,125,126,128,128,127,128,0
10824,125,128,126,126,127,129,128,128,0
10827,125,129,125,129,128,127,129,128,0
10830,130,126,127,127,128,127,130,128,0
10833,130,126,129,129,128,129,130,126,0
10836,131,125,133,131,130,121,127,125,0
10840,131,124,132,131,130,123,126,128,0
10843,130,128,127,127,126,129,129,128,0
10846,130,127,128,126,127,126,128,125,0
10850,127,129,125,126,125,131,129,126,0
10854,129,127,131,130,128,123,126,128,0
10857,125,129,125,127,126,128,129,127,0
10917,131,125,129,128,128,130,130,128,0
10926,126,128,126,127,127,129,128,128,0
10931,124,130,126,128,127,127,127,128,0
10934,129,127,127,127,128,127,130,129,0
10938,131,129,127,126,128,129,130,129,0
11001,123,130,126,127,129,124,126,124,0
11010,130,126,132,133,129,121,126,126,0
11016,125,129,125,126,128,126,128,128,0
11094,126,129,125,126,125,128,127,128,0
11113,129,127,125,125,126,130,128,127,0
11120,129,127,129,129,128,129,128,128,0
11124,126,129,128,126,128,128,129,128,0
11128,128,125,129,127,127,129,128,128,0
11131,126,129,126,126,125,130,129,128,0
11135,129,128,129,126,128,129,129,129,0
11138,124,129,125,127,127,127,127,127,0
11141,128,127,129,128,126,128,128,127,0
11145,128,128,130,133,130,123,126,126,0
11148,131,124,134,132,130,122,126,126,0
11152,126,127,129,125,126,129,128,128,0
11155,127,125,128,128,127,128,130,129,0
11158,127,127,125,125,126,129,127,129,0
11162,132,127,125,125,126,130,128,128,0
11165,126,130,128,127,127,128,129,129,0
11184,124,130,125,127,126,127,128,127,0
11189,126,127,128,126,127,128,129,129,0
11193,123,128,128,133,129,123,125,124,0
11196,131,124,129,127,127,128,128,128,0
11200,133,127,128,127,127,129,129,129,0
11203,126,128,128,128,127,129,129,128,0
11206,124,130,126,125,126,130,128,128,0
11209,127,128,125,128,127,126,128,128,0
11213,129,128,125,127,128,126,129,128,0
11216,128,128,125,126,127,129,128,128,0
11219,125,129,127,127,127,129,128,126,0
11223,131,124,133,132,130,121,127,128,0
11226,124,129,130,129,129,127,129,128,0
11229,125,129,126,126,128,129,129,127,0
11233,126,125,128,125,126,130,129,127,0
11237,128,127,128,128,127,127,128,127,0
11241,131,128,125,127,129,128,129,129,0
11248,125,130,126,126,127,128,126,125,0
11251,128,125,131,132,131,122,126,125,0
11254,130,125,132,132,128,128,129,128,0
11256,127,128,127,129,129,128,129,129,0
11259,125,128,123,126,125,129,128,128,0
11263,127,129,127,126,127,130,129,129,0
11266,126,129,125,126,126,126,128,128,0
11269,128,128,124,127,127,128,128,127,0
11273,129,128,129,128,127,129,128,127,0
11277,128,127,128,127,127,129,127,125,0
11280,131,125,133,133,130,121,125,124,0
11283,128,128,127,127,127,129,128,128,0
11286,127,128,129,128,125,130,128,128,0
11289,125,128,127,125,127,130,128,128,0
11292,129,127,129,131,130,124,126,128,0
11296,128,127,128,127,127,128,127,128,0
11300,127,126,126,126,128,130,129,128,0
11304,128,128,127,128,129,121,125,125,0
11306,132,126,132,131,129,124,126,128,0
11309,126,129,124,126,127,127,129,128,0
11313,131,127,125,126,126,131,128,128,0
11317,124,129,128,127,126,130,128,128,0
11322,126,128,129,128,127,129,128,128,0
11326,125,130,126,128,129,127,127,128,0
11329,126,128,127,127,127,129,127,128,0
11332,128,127,126,126,127,130,128,128,0
11335,127,128,128,127,126,129,126,128,0
11338,128,128,125,128,129,127,128,128,0
11341,127,128,128,129,128,128,129,127,0
11346,125,128,127,128,127,129,125,125,0
11352,130,125,133,132,131,122,125,125,0
11355,134,124,129,127,128,129,128,128,0
11357,131,126,131,125,128,130,128,128,0
11360,130,128,127,128,127,130,128,128,0
11363,126,129,128,126,127,129,128,128,0
11365,127,128,126,126,127,129,126,127,0
11368,128,127,128,127,126,128,127,127,0
11371,126,127,126,129,129,122,126,125,0
11375,131,125,131,132,131,122,126,125,0
11378,129,127,130,128,127,129,128,128,0
11381,124,128,130,125,127,130,129,128,0
11383,126,128,124,124,126,131,128,128,0
11386,127,127,125,126,126,129,128,128,0
11390,129,128,128,127,127,128,127,128,0
11394,127,127,128,130,128,128,128,128,0
11397,124,129,127,127,127,130,128,129,0
11401,124,128,128,127,126,127,128,129,0
11404,126,128,126,127,127,126,127,127,0
11407,130,128,125,128,128,128,127,128,0
11409,125,128,127,127,127,129,128,126,0
11413,132,126,133,132,130,121,126,124,0
11416,131,125,132,130,128,127,129,127,0
11420,130,127,125,125,126,128,128,128,0
11424,126,129,128,127,127,130,128,127,0
11428,130,126,130,132,130,123,126,125,0
11432,130,126,129,129,127,129,129,128,0
11435,125,128,125,128,128,128,129,129,0
11438,125,129,126,126,127,129,129,129,0
11440,125,128,126,126,126,132,127,128,0
11444,131,126,130,126,128,128,127,127,0
11448,130,129,130,127,128,128,128,127,0
11452,124,129,124,127,126,128,126,126,0
11457,130,126,129,130,128,125,125,126,0
11462,128,127,130,131,128,127,129,128,0
11464,128,126,125,128,129,126,128,128,0
11467,127,128,124,126,126,129,128,129,0
11470,125,129,125,125,127,130,128,128,0
11474,126,128,127,126,129,127,128,128,0
11477,126,127,128,129,129,128,128,128,0
11480,127,128,127,126,128,129,127,128,0
11483,126,129,127,127,127,131,126,128,0
11485,125,128,127,128,127,128,128,128,0
11488,128,126,127,127,128,127,127,127,0
11491,130,125,128,128,128,129,127,128,0
11494,126,129,128,127,127,130,128,127,0
11497,134,125,133,132,130,122,125,125,0
11499,131,126,128,126,128,129,126,128,0
11502,127,128,130,125,127,129,129,126,0
11505,129,127,129,129,128,125,125,125,0
11508,129,126,131,131,130,124,128,128,0
11512,124,128,126,128,128,127,129,128,0
11519,129,128,125,126,126,130,128,129,0
11522,128,126,127,125,126,130,128,127,0
11538,130,126,130,128,129,125,126,130,0
11543,126,129,129,127,127,129,128,128,0
11548,127,128,128,128,128,129,129,129,0
11552,124,129,125,124,126,130,130,129,0
11557,126,128,125,125,126,129,127,129,0
11562,128,127,126,127,127,130,127,128,0
11565,129,127,128,127,127,131,127,128,0
11568,127,129,127,126,127,130,128,129,0
11572,126,128,127,127,127,129,127,127,0
11578,127,127,127,128,129,126,128,127,0
11587,126,128,127,128,128,128,129,128,0
11590,127,128,127,127,130,122,125,126,0
11597,130,125,132,132,131,120,126,126,0
11611,129,126,130,126,128,128,128,128,0
11616,125,127,127,125,129,128,128,128,0
11620,127,128,125,126,126,129,127,125,0
11624,133,125,132,131,130,122,126,125,0
11628,129,127,128,125,126,129,129,128,0
11631,125,127,128,128,128,128,128,128,0
11634,126,128,124,127,127,129,128,129,0
11638,125,128,126,126,125,129,129,128,0
11641,126,129,125,126,126,127,128,128,0
11646,126,129,126,127,127,128,127,128,0
11649,124,129,127,126,128,129,128,128,0
11654,124,128,126,126,126,129,128,128,0
11657,129,128,127,127,129,127,128,127,0
11661,129,128,128,128,127,127,128,128,0
11664,126,128,126,128,128,128,125,129,0
11667,125,126,134,132,130,121,126,124,0
11671,133,124,134,132,129,128,128,128,0
11674,127,128,129,129,128,130,127,127,0
11678,125,128,125,128,127,128,126,128,0
11680,128,127,132,132,129,123,126,124,0
11685,132,124,131,127,127,127,128,128,0
11688,127,126,126,127,126,129,128,128,0
11690,127,128,128,128,126,130,129,129,0
11694,125,128,126,127,127,130,130,129,0
11697,127,128,126,126,128,128,129,128,0
11701,126,129,124,126,128,127,128,127,0
11706,130,127,128,127,128,130,127,129,0
11711,126,129,127,126,127,130,129,128,0
11716,124,127,128,127,127,128,126,127,0
11720,128,126,128,128,127,127,128,128,0
11723,130,129,125,126,128,129,127,128,0
11726,125,129,128,130,130,122,125,125,0
11728,129,126,132,133,131,121,126,128,0
11731,125,128,125,127,127,127,129,128,0
11735,128,128,126,126,125,130,127,128,0
11739,126,128,126,125,124,130,129,128,0
11741,126,127,130,130,129,123,127,128,0
11745,125,128,126,128,129,126,129,128,0
11748,126,129,126,127,126,130,126,128,0
11752,126,128,126,125,127,130,129,124,0
11755,131,124,132,132,130,121,126,124,0
11757,130,127,128,127,127,129,128,128,0
11760,125,128,129,129,130,130,128,127,0
11763,128,125,129,130,128,125,125,125,0
11766,130,124,134,131,131,123,126,129,0
11770,127,128,129,128,128,128,128,128,0
11774,126,126,128,127,128,129,129,129,0
11777,128,129,125,126,128,130,130,127,0
11780,127,128,128,128,126,130,128,128,0
11783,125,128,125,126,128,126,128,127,0
11786,128,129,127,126,126,129,128,128,0
11789,125,129,127,131,129,125,127,126,0
11792,128,127,129,131,128,124,126,129,0
11795,126,129,125,127,128,127,128,128,0
11798,128,129,125,126,126,129,126,127,0
11801,127,128,130,125,126,131,128,127,0
11807,130,127,127,125,127,128,128,128,0
11811,125,129,125,126,128,125,128,128,0
11815,127,127,126,127,127,130,126,128,0
11821,129,128,126,127,127,129,128,127,0
11825,128,127,128,127,129,121,125,125,0
11827,129,126,131,131,128,126,129,128,0
11830,126,129,125,126,126,128,127,126,0
11833,128,129,124,126,125,129,128,128,0
11835,129,124,131,131,130,123,125,125,0
11838,130,129,125,127,128,127,129,128,0
11840,126,128,125,126,127,128,128,127,0
11843,131,129,126,125,127,129,129,129,0
11846,125,128,125,125,127,130,128,128,0
11849,128,127,127,126,128,127,129,128,0
11851,127,129,125,127,126,128,128,127,0
11854,128,128,127,127,126,129,128,128,0
11857,125,128,127,127,130,120,125,124,0
11862,132,125,131,132,129,128,127,128,0
11864,129,128,127,129,128,128,127,129,0
11867,123,129,125,127,126,130,127,128,0
11870,127,128,129,129,131,122,125,126,0
11873,132,125,131,129,129,128,129,128,0
11876,125,127,127,129,129,128,129,128,0
11879,128,128,126,128,127,130,128,128,0
11883,124,128,127,127,127,130,128,128,0
11886,125,128,125,127,129,127,128,128,0
11890,126,129,126,127,128,127,129,128,0
11893,123,129,125,126,126,129,127,128,0
11896,127,126,133,132,131,122,125,125,0
11899,129,126,132,130,127,130,128,127,0
11902,128,127,129,128,128,129,129,129,0
11905,128,128,126,125,126,130,127,129,0
11909,125,127,126,125,126,129,128,129,0
11913,125,129,126,127,127,127,129,128,0
11916,130,127,125,129,128,128,128,128,0
11919,125,129,126,126,126,129,126,128,0
11921,127,128,126,127,129,122,125,125,0
11924,131,125,133,132,129,124,126,128,0
11927,127,128,127,126,127,129,127,128,0
11930,125,128,127,126,127,128,129,129,0
11937,132,126,130,129,126,129,128,128,0
11933,127,128,128,131,129,122,126,124,0
11940,127,128,129,126,128,129,128,128,0
11943,126,128,126,127,126,130,128,128,0
11946,129,129,126,125,125,131,127,128,0
11949,123,130,125,127,127,128,128,128,0
11952,128,128,124,127,126,128,127,126,0
11955,134,125,128,127,126,131,127,128,0
11959,125,129,128,127,126,130,128,129,0
11963,125,127,128,128,127,127,129,128,0
11966,126,128,127,128,128,127,128,129,0
11969,126,128,129,128,127,128,128,127,0
11972,124,128,128,127,130,122,125,125,0
11975,134,123,133,132,130,121,125,125,0
11978,130,129,127,126,126,129,128,128,0
11981,130,129,128,128,127,128,128,128,0
11984,126,129,126,126,128,128,130,129,0
11987,126,129,125,126,125,130,127,127,0
11992,129,127,129,128,127,127,127,126,0
11995,126,127,128,128,128,127,129,128,0
11999,127,127,128,127,125,129,126,125,0
12003,134,124,132,131,130,123,125,126,0
12008,127,129,124,126,128,126,129,128,0
12013,129,127,127,126,126,129,127,128,0
12017,128,129,129,127,126,128,131,126,0
12023,132,126,132,131,129,121,126,126,0
12027,124,128,124,128,128,127,130,129,0
12031,127,129,124,127,130,127,130,129,0
12034,123,128,125,127,127,129,129,129,0
12038,124,130,124,126,126,128,128,128,0
12041,130,128,126,126,126,129,126,127,0
12044,129,127,128,129,128,129,128,127,0
12047,126,128,129,126,127,129,126,128,0
12050,126,127,131,132,129,124,125,124,0
12054,131,126,129,128,128,128,128,127,0
12057,129,127,126,129,128,128,129,129,0
12060,124,130,126,126,127,130,129,129,0
12063,126,127,129,130,128,125,127,126,0
12066,129,126,126,128,130,127,129,128,0
12070,127,128,125,127,129,128,129,129,0
12073,125,129,125,128,128,129,129,127,0
12076,126,128,129,130,129,122,126,125,0
12080,132,124,129,126,126,129,128,128,0
12083,127,129,126,127,128,128,128,128,0
12087,126,128,127,128,127,129,129,129,0
12090,126,129,125,126,125,129,129,126,0
12093,130,126,129,127,126,128,127,127,0
12096,127,126,131,127,128,129,128,127,0
12099,133,128,126,125,126,131,127,129,0
12102,126,127,126,125,127,130,128,128,0
12104,128,127,127,127,129,127,128,128,0
12108,127,129,126,127,127,128,126,127,0
12110,128,128,125,126,127,128,128,128,0
12114,124,129,126,127,126,130,128,128,0
12117,125,128,128,129,128,127,127,128,0
12121,127,127,128,128,129,129,128,128,0
12125,132,127,128,127,129,126,126,125,0
12130,130,127,131,132,130,124,125,124,0
12134,131,125,133,132,130,124,126,128,0
12137,126,127,129,128,129,127,129,129,0
12140,126,128,126,127,127,130,129,128,0
12144,124,129,126,127,127,129,130,129,0
12146,127,129,125,126,126,126,127,128,0
12149,130,128,126,127,126,127,128,128,0
12152,126,129,127,127,127,129,127,128,0
12155,127,128,127,131,129,121,126,125,0
12159,130,125,133,133,129,124,127,127,0
12162,128,128,129,128,128,129,129,128,0
12165,123,128,128,128,128,130,128,128,0
12168,125,127,129,129,128,123,126,125,0
12171,131,126,133,132,129,127,129,129,0
12174,126,127,126,127,128,128,129,129,0
12176,126,129,125,126,127,129,128,129,0
12179,126,129,126,127,126,130,129,129,0
12181,124,129,128,127,127,129,128,128,0
12185,126,128,126,127,127,128,127,127,0
12188,131,125,128,128,128,129,128,128,0
12191,129,129,127,126,127,130,128,128,0
12195,123,129,126,127,128,129,128,127,0
12198,129,126,128,128,127,127,128,128,0
12202,126,128,126,128,126,128,127,128,0
12205,128,127,128,131,131,121,125,125,0
12208,131,125,132,132,130,121,125,125,0
12212,127,126,127,128,128,127,128,127,0
12216,127,130,126,125,126,128,128,129,0
12220,126,128,127,128,128,127,129,126,0
12228,129,127,131,129,128,125,126,128,0
12232,125,128,129,125,127,129,127,128,0
12239,128,128,128,128,128,129,128,128,0
12243,127,128,127,127,130,130,128,129,0
12247,125,128,126,127,129,130,128,128,0
12249,124,127,127,128,128,128,128,127,0
12253,129,127,131,128,128,128,126,128,0
12257,128,127,127,126,129,123,125,126,0
12260,130,126,132,132,131,122,125,124,0
12263,130,126,127,125,126,129,127,128,0
12267,131,127,129,126,127,130,128,128,0
12270,126,129,125,126,127,128,128,129,0
12276,122,129,127,127,127,129,128,129,0
12279,124,128,126,128,126,128,127,128,0
12282,128,127,128,128,126,129,126,127,0
12285,129,128,127,126,126,128,128,127,0
12288,128,127,128,127,126,129,128,129,0
12290,128,128,126,127,128,127,128,129,0
12293,125,129,128,128,129,127,128,128,0
12296,127,128,127,128,127,129,128,129,0
12300,126,129,126,126,126,129,126,124,0
12303,133,124,133,132,131,120,126,124,0
12306,128,129,124,126,129,127,129,128,0
12309,128,128,125,125,126,129,127,129,0
12312,126,128,128,126,125,128,126,126,0
12315,130,124,133,132,129,124,126,128,0
12318,131,128,127,126,127,128,128,128,0
12322,131,127,130,125,126,131,127,129,0
12325,126,129,129,128,130,123,125,125,0
12330,130,125,135,131,128,128,129,128,0
12336,125,129,125,127,128,128,128,128,0
12340,128,128,127,127,125,131,127,128,0
12345,129,126,128,130,128,123,126,126,0
12352,130,126,131,129,127,130,128,128,0
12356,127,129,124,125,128,129,129,129,0
12359,127,129,128,128,128,129,131,129,0
12365,124,125,127,125,125,132,128,128,0
12368,127,129,131,125,127,129,127,128,0
12371,127,127,128,130,129,127,127,128,0
12374,127,127,127,129,127,129,129,129,0
12378,131,128,127,127,127,131,128,129,0
12381,122,130,126,126,127,128,128,129,0
12384,126,128,126,128,129,127,128,128,0
12387,127,128,126,128,128,129,128,127,0
12391,128,128,128,129,131,122,126,126,0
12394,131,125,132,132,131,121,126,126,0
12396,126,128,125,126,128,127,128,127,0
12399,128,129,127,126,127,128,130,129,0
12402,126,128,124,129,128,128,129,129,0
12405,125,129,126,125,127,128,128,128,0
12408,126,128,127,128,129,127,127,128,0
12411,127,128,128,127,127,128,127,128,0
12414,130,128,125,127,127,128,125,125,0
12417,130,125,133,132,130,122,125,124,0
12419,127,126,130,129,128,127,129,128,0
12422,127,128,124,125,128,128,128,128,0
12425,124,130,125,126,125,131,128,128,0
12427,130,124,134,132,130,121,125,125,0
12430,129,125,129,125,129,130,128,128,0
12434,127,129,126,128,128,127,129,129,0
12437,125,129,125,124,126,129,128,129,0
12439,124,129,127,125,127,130,129,128,0
12445,127,128,126,126,128,127,128,128,0
12448,127,127,128,127,127,129,127,128,0
12452,129,128,130,130,128,125,126,127,0
12454,128,127,130,130,128,123,126,125,0
12457,130,127,126,126,126,128,127,127,0
12460,128,128,129,128,127,128,128,128,0
12463,125,129,125,127,127,129,129,128,0
12466,126,128,125,126,127,130,127,129,0
12470,127,129,127,127,128,127,128,127,0
12475,126,128,127,127,126,129,127,128,0
12478,127,128,126,126,126,130,128,127,0
12483,126,128,127,125,126,130,127,128,0
12486,126,127,129,129,127,127,127,127,0
12489,128,127,127,128,127,129,125,127,0
12493,129,127,129,133,129,122,125,125,0
12497,130,125,132,132,131,121,126,124,0
12500,132,125,129,127,126,129,127,128,0
12503,125,128,130,126,126,130,128,127,0
12507,130,127,126,125,125,129,131,129,0
12510,131,128,129,129,129,125,126,127,0
12513,128,128,128,128,128,127,129,128,0
12516,127,128,126,127,129,127,129,128,0
12519,128,127,124,125,126,129,129,129,0
12522,127,129,125,124,126,131,128,128,0
12525,129,128,126,126,125,128,127,127,0
12528,127,129,130,127,129,128,126,129,0
12531,124,128,130,127,127,129,129,128,0
12534,127,129,127,126,126,130,128,126,0
12539,131,124,134,132,130,121,128,128,0
12542,127,128,125,127,126,128,127,127,0
12547,131,126,126,126,125,127,126,127,0
12551,130,126,128,129,128,126,127,127,0
12555,128,127,129,129,126,129,129,128,0
12560,126,126,130,128,127,129,128,127,0
12564,130,128,129,127,126,130,128,128,0
12566,125,128,129,127,129,125,127,127,0
12569,128,127,129,131,128,127,128,128,0
12572,126,128,125,126,128,127,128,128,0
12574,129,127,125,126,126,128,130,128,0
12577,126,130,124,125,126,130,129,129,0
12580,125,129,126,127,127,128,126,128,0
12585,126,127,126,127,128,126,128,128,0
12588,126,128,127,129,128,129,129,128,0
12607,126,129,127,130,130,121,125,125,0
12612,133,124,132,131,131,123,127,127,0
12617,128,126,127,125,127,129,128,128,0
12620,126,128,127,129,128,128,129,129,0
12624,125,129,124,124,127,129,129,129,0
12677,125,129,125,126,126,128,128,127,0
12686,128,128,127,127,126,129,126,127,0
12692,128,127,128,126,129,127,125,127,0
12746,126,129,125,126,127,131,127,125,0
12757,129,124,132,132,130,120,126,125,0
12767,130,127,124,126,127,127,129,128,0
12774,131,128,128,127,126,129,127,127,0
12779,127,127,127,125,125,131,128,126,0
12786,129,125,133,132,130,122,126,126,0
12790,126,125,127,128,128,129,128,128,0
12796,126,128,130,128,128,129,129,128,0
12802,124,129,124,125,126,129,129,128,0
12805,129,126,125,125,126,128,129,129,0
12808,129,128,125,126,127,128,127,128,0
12815,123,129,126,125,128,128,126,128,0
12818,124,129,126,127,127,130,127,127,0
12812,128,128,129,126,128,128,128,127,0
12822,130,127,128,128,128,128,128,128,0
12826,128,127,129,128,127,129,128,128,0
12830,127,128,129,133,130,122,126,124,0
12835,131,125,133,133,130,121,126,125,0
