Start Recording
19,128,127,127,127,129,128,129,127,0
24,127,128,128,128,127,128,128,128,0
29,128,128,126,128,127,128,128,128,0
33,127,128,127,128,127,126,128,126,0
36,127,127,128,127,126,128,128,128,0
40,127,128,127,126,124,127,128,128,0
43,128,128,128,127,128,128,128,128,0
46,127,128,129,127,125,124,127,127,0
50,126,127,128,126,122,126,128,127,0
88,127,127,127,126,124,125,124,125,0
99,130,127,126,129,126,127,125,124,0
104,128,127,127,129,127,126,125,127,0
108,128,127,128,130,127,126,126,128,0
111,128,128,126,129,125,127,130,129,0
137,127,129,127,128,130,130,129,128,0
141,127,128,128,126,127,129,128,128,0
145,127,128,128,125,128,128,129,128,0
148,126,128,128,128,128,129,128,128,0
151,128,128,128,127,126,129,128,128,0
155,127,128,129,128,129,128,128,128,0
161,126,127,128,126,125,127,123,127,0
165,128,126,129,131,128,125,127,129,0
169,127,128,128,126,130,129,129,128,0
172,127,128,128,128,128,128,129,128,0
175,127,128,128,125,126,125,127,127,0
179,126,127,127,125,129,127,128,128,0
182,127,128,128,127,126,127,129,128,0
185,127,128,127,128,127,128,128,128,0
189,127,127,128,127,123,127,128,128,0
192,127,127,127,128,126,127,127,128,0
196,128,128,127,128,126,128,127,128,0
199,128,129,128,128,128,128,127,127,0
205,130,127,127,130,128,127,124,126,0
208,130,126,128,130,128,128,123,126,0
211,129,128,128,125,129,129,129,128,0
214,128,128,128,126,127,129,129,128,0
218,127,128,128,124,128,128,129,128,0
220,126,127,127,125,129,128,129,128,0
224,128,128,127,128,127,128,128,128,0
228,127,128,127,128,128,129,129,128,0
230,126,128,127,127,127,124,128,128,0
233,126,127,126,127,126,124,128,128,0
236,127,128,127,130,128,128,127,128,0
240,127,128,127,129,127,126,127,127,0
243,127,128,127,130,128,127,122,126,0
246,129,126,128,131,130,127,124,126,0
249,129,127,126,127,130,129,130,128,0
252,128,129,126,126,128,129,129,127,0
272,126,128,127,125,129,128,129,129,0
277,126,127,127,126,128,128,129,128,0
283,127,128,127,128,129,128,128,129,0
287,128,128,126,129,129,128,129,128,0
290,127,127,127,128,128,127,129,128,0
293,127,127,127,126,126,127,124,126,0
297,130,126,127,131,128,127,126,127,0
300,127,128,127,128,130,128,130,128,0
303,127,127,127,125,128,127,129,129,0
306,129,127,127,125,128,128,128,127,0
309,126,127,127,126,128,128,128,128,0
312,127,128,128,128,127,129,128,127,0
316,127,128,129,127,121,125,129,127,0
319,126,127,128,131,129,129,122,126,0
323,130,127,128,131,129,130,124,127,0
326,130,127,129,125,126,129,128,127,0
329,127,127,130,125,126,128,129,128,0
332,126,128,128,127,127,123,127,126,0
336,130,127,127,130,127,129,125,127,0
339,130,127,127,128,129,129,129,128,0
341,128,127,129,127,127,127,131,128,0
344,127,128,128,127,129,125,128,128,0
347,125,128,127,127,129,130,130,129,0
350,128,129,127,125,128,128,129,129,0
353,130,128,128,125,123,125,128,127,0
356,128,128,127,125,126,124,129,129,0
360,127,128,127,128,129,126,127,127,0
363,127,128,127,127,128,127,127,127,0
366,128,128,128,128,127,127,127,127,0
369,127,126,127,127,126,127,127,128,0
373,127,128,128,127,123,128,127,128,0
376,127,127,127,128,126,129,127,128,0
380,127,129,128,129,126,128,127,127,0
384,128,128,127,129,122,127,128,127,0
387,128,128,128,128,125,127,127,127,0
390,127,127,126,128,127,128,127,127,0
393,128,128,126,128,128,128,126,128,0
397,128,127,126,127,129,127,127,128,0
399,127,128,128,127,126,127,127,128,0
402,127,128,127,128,127,129,127,127,0
406,128,128,128,127,123,126,128,128,0
409,127,126,127,128,127,128,124,126,0
412,129,127,128,129,127,128,124,127,0
415,130,128,128,129,124,125,129,128,0
418,127,129,127,125,128,128,129,129,0
421,128,128,130,125,121,125,124,126,0
424,130,126,128,130,129,127,124,126,0
426,129,127,128,127,128,128,131,128,0
429,127,128,128,125,127,128,130,128,0
433,126,128,128,124,126,126,128,129,0
436,126,128,129,124,128,127,128,128,0
439,127,127,127,128,128,129,128,127,0
443,126,129,130,126,128,129,127,127,0
446,126,127,128,126,125,125,128,127,0
449,125,126,128,126,128,126,128,127,0
452,127,127,129,126,129,128,128,128,0
455,127,128,127,127,128,128,128,128,0
459,128,127,126,129,126,127,122,125,0
462,131,127,127,131,129,127,123,126,0
466,130,127,127,126,129,127,130,128,0
469,129,129,127,126,128,128,128,128,0
472,128,128,126,128,131,127,128,128,0
477,123,128,127,126,126,126,127,128,0
483,127,129,127,126,126,127,127,128,0
486,127,129,126,127,126,128,128,128,0
489,127,129,127,127,127,128,129,128,0
492,128,127,127,130,125,127,124,126,0
496,131,128,127,131,125,128,129,128,0
499,127,129,127,129,128,128,128,128,0
502,127,129,126,128,128,127,128,128,0
505,127,127,127,127,124,127,128,128,0
508,127,127,126,126,128,127,127,128,0
512,127,127,128,129,128,129,128,128,0
515,127,128,127,128,126,127,127,127,0
519,127,127,127,127,127,127,128,128,0
523,126,127,128,127,127,129,128,128,0
526,126,128,128,130,128,129,128,128,0
529,127,126,127,127,124,127,128,128,0
532,131,127,128,131,127,128,123,126,0
535,130,126,127,131,127,127,125,128,0
539,127,128,129,128,129,129,127,128,0
542,128,128,126,128,130,128,129,128,0
546,126,128,129,128,132,127,128,128,0
549,127,127,129,126,129,128,128,127,0
552,128,127,127,128,129,129,128,129,0
556,127,128,127,126,128,128,128,128,0
559,129,126,127,129,127,126,126,127,0
561,129,127,127,129,126,127,125,127,0
565,127,128,128,125,128,130,129,128,0
568,127,128,127,128,128,127,129,128,0
572,128,128,131,128,124,125,125,127,0
575,129,127,127,129,127,127,125,127,0
579,129,127,130,128,128,129,129,128,0
585,127,128,128,128,128,128,129,128,0
589,127,128,130,129,129,127,129,128,0
593,127,128,127,126,127,128,128,128,0
596,128,129,128,128,128,129,128,127,0
598,128,128,127,126,129,128,129,128,0
601,128,126,127,129,126,126,125,126,0
604,129,127,127,128,127,127,125,126,0
608,129,127,129,125,129,129,129,128,0
610,126,128,127,127,128,128,129,128,0
616,127,127,127,125,128,126,128,128,0
620,127,128,128,127,128,127,128,128,0
624,127,127,128,128,128,128,127,128,0
627,128,128,128,129,127,128,128,128,0
630,128,127,128,131,127,128,122,126,0
633,130,127,127,131,127,129,123,126,0
636,128,127,129,126,127,130,128,129,0
639,127,128,128,125,127,129,129,128,0
642,127,128,127,128,127,127,129,127,0
645,127,128,129,126,127,126,129,127,0
649,127,127,127,128,126,127,128,127,0
652,128,128,126,127,127,129,128,128,0
655,127,128,127,128,126,125,127,127,0
658,128,127,127,130,127,126,126,127,0
661,129,127,127,130,127,127,130,128,0
664,127,129,128,128,129,129,130,128,0
667,126,128,128,126,128,126,129,129,0
671,126,127,129,128,129,126,130,128,0
674,128,128,127,126,128,128,129,128,0
678,129,128,127,126,128,128,128,127,0
681,128,127,128,127,125,126,128,126,0
687,130,126,128,131,130,128,124,125,0
691,130,127,128,129,125,129,128,128,0
695,128,128,126,125,128,128,129,128,0
698,127,128,126,124,128,129,130,127,0
701,126,128,127,125,128,128,130,128,0
703,127,128,127,124,127,129,129,128,0
706,127,128,126,128,128,130,128,128,0
709,128,128,127,128,127,125,126,128,0
712,127,127,128,126,128,126,128,128,0
715,126,128,129,128,127,127,127,127,0
718,128,128,128,128,127,128,127,128,0
722,128,127,127,126,121,125,127,127,0
725,129,126,127,131,128,128,122,126,0
728,130,126,128,129,126,126,129,128,0
731,128,128,128,126,126,129,129,129,0
733,127,128,128,127,129,128,129,128,0
736,129,127,130,126,128,127,128,128,0
739,126,128,127,128,129,128,128,127,0
742,128,128,127,127,128,129,128,127,0
746,128,128,126,127,127,127,129,128,0
749,127,127,127,129,126,127,126,127,0
751,130,126,126,132,128,128,123,126,0
755,127,128,127,128,127,128,130,128,0
760,127,128,128,126,131,127,129,128,0
764,126,128,129,125,128,126,128,128,0
767,127,128,128,125,129,126,129,128,0
769,126,128,128,126,128,127,127,127,0
774,127,128,127,127,127,127,128,128,0
777,126,127,127,126,127,127,127,128,0
780,128,127,128,128,124,127,123,127,0
786,129,126,129,128,127,129,127,128,0
790,128,128,128,126,128,129,127,128,0
794,127,128,128,127,125,127,128,128,0
796,126,126,127,131,129,128,123,126,0
799,129,127,127,127,129,128,129,127,0
802,128,128,128,127,129,129,128,127,0
805,128,128,130,128,128,126,129,128,0
808,125,127,130,128,128,127,129,128,0
812,126,128,128,127,128,129,128,127,0
816,128,128,127,128,126,128,127,128,0
819,126,128,127,129,126,127,123,125,0
822,130,126,128,131,127,128,124,126,0
825,129,127,130,126,128,129,129,128,0
828,127,129,129,127,128,128,129,128,0
832,127,128,127,125,127,128,130,128,0
836,125,127,129,125,127,128,127,128,0
839,128,129,127,126,127,129,128,128,0
842,127,128,128,127,127,129,128,128,0
845,126,127,128,125,126,128,129,128,0
847,128,126,127,130,127,127,124,126,0
850,130,127,127,128,127,128,128,128,0
853,128,128,128,128,128,128,127,128,0
856,127,128,128,126,127,127,128,128,0
859,127,127,127,125,128,125,128,128,0
862,127,127,128,127,128,128,127,128,0
866,128,128,127,128,128,127,127,127,0
869,126,128,128,126,129,126,128,128,0
872,126,127,128,131,128,128,122,125,0
876,130,127,127,129,121,128,128,128,0
881,127,128,127,126,128,128,129,128,0
885,127,128,127,125,128,126,127,128,0
891,127,127,129,128,127,128,128,128,0
894,127,127,127,127,129,128,128,128,0
897,127,128,127,127,128,127,128,128,0
899,128,128,128,128,127,127,128,127,0
903,129,126,127,130,128,127,122,126,0
906,130,127,128,129,125,128,128,127,0
909,127,128,127,124,129,129,130,128,0
912,128,128,128,123,128,128,130,128,0
915,126,125,129,124,128,126,130,128,0
919,127,127,127,126,128,128,129,128,0
922,127,128,126,127,127,128,129,127,0
925,128,127,127,126,127,127,129,127,0
928,127,126,126,131,127,128,123,126,0
931,129,127,127,130,125,125,128,128,0
936,130,129,128,127,128,128,129,128,0
939,127,128,127,127,128,127,128,127,0
942,127,127,129,129,127,127,127,128,0
945,127,128,127,128,127,127,127,128,0
948,129,128,126,129,128,127,127,128,0
951,129,129,127,129,127,127,126,128,0
954,128,127,127,128,127,126,123,125,0
958,130,126,128,131,129,129,123,126,0
961,129,125,128,127,128,129,129,128,0
964,127,128,127,127,129,129,129,128,0
967,127,128,127,126,129,128,128,128,0
971,126,126,127,126,129,128,128,128,0
974,127,128,127,129,129,128,128,128,0
977,128,129,128,127,128,127,129,128,0
979,125,127,127,125,128,127,126,126,0
984,129,126,127,130,127,127,123,126,0
989,130,127,127,125,127,129,129,128,0
992,127,128,128,125,128,128,129,128,0
995,127,127,127,125,127,128,129,129,0
999,126,127,128,125,128,129,129,128,0
1001,127,128,126,127,128,128,129,128,0
1005,127,128,126,127,128,128,129,128,0
1008,127,128,128,129,124,127,124,126,0
1010,129,127,128,132,128,128,124,126,0
1014,127,127,130,126,129,129,129,128,0
1016,126,128,127,128,129,128,128,128,0
1019,127,128,128,125,126,126,128,128,0
1022,127,128,130,128,130,127,129,128,0
1025,126,127,128,126,128,128,128,128,0
1028,127,128,127,126,128,128,129,128,0
1031,127,128,128,127,127,125,128,128,0
1033,127,128,128,129,125,127,123,125,0
1036,131,128,128,132,127,126,129,128,0
1039,127,129,130,129,128,129,129,128,0
1042,127,128,128,125,126,127,128,128,0
1045,129,128,130,128,126,127,126,126,0
1048,129,127,127,129,125,130,128,128,0
1051,127,129,129,127,129,128,129,128,0
1054,127,129,128,126,129,127,128,128,0
1057,127,128,130,128,128,126,128,128,0
1060,127,127,129,127,128,129,128,128,0
1063,127,128,127,128,128,129,129,128,0
1066,128,128,129,126,129,124,129,128,0
1070,127,127,127,132,129,128,123,126,0
1073,131,127,128,132,128,126,129,129,0
1079,127,128,127,129,128,129,128,128,0
1082,127,128,128,128,128,128,128,127,0
1085,126,125,130,125,129,128,128,127,0
1088,129,128,129,128,128,129,127,128,0
1090,128,128,127,127,127,128,128,128,0
1096,127,128,128,126,127,124,128,128,0
1099,128,126,127,130,128,128,123,125,0
1101,130,127,127,130,124,128,131,127,0
1105,128,129,129,128,127,128,129,128,0
1108,127,129,127,124,127,127,129,128,0
1110,126,127,129,125,127,126,130,128,0
1113,127,128,127,126,127,127,129,127,0
1117,127,128,126,126,126,127,128,127,0
1120,128,128,127,128,126,126,128,128,0
1123,126,127,127,126,126,125,127,128,0
1126,127,128,127,131,126,127,123,126,0
1130,129,127,127,129,126,129,128,127,0
1133,127,128,127,127,128,128,127,127,0
1136,127,128,127,126,124,127,128,128,0
1139,128,127,128,127,124,127,125,127,0
1142,128,127,127,131,126,125,126,127,0
1146,128,127,128,129,128,127,126,127,0
1149,128,128,127,128,128,127,126,128,0
1152,128,128,128,129,126,128,129,128,0
1156,127,126,128,129,130,129,129,128,0
1158,127,127,130,128,129,128,129,128,0
1161,126,125,129,127,129,127,130,128,0
1168,128,128,127,126,127,128,129,129,0
1165,127,128,127,125,127,128,128,128,0
1171,127,129,127,126,128,128,130,128,0
1178,126,128,127,126,127,126,129,128,0
1181,127,128,127,126,128,128,128,127,0
1185,127,128,128,129,127,128,127,127,0
1188,127,128,128,129,128,127,128,125,0
1192,129,126,128,130,125,125,124,127,0
1195,129,127,127,130,126,126,124,127,0
1197,129,127,128,126,128,128,129,127,0
1200,128,129,127,126,128,129,128,128,0
1203,127,128,130,126,127,128,129,128,0
1206,127,128,127,126,126,128,127,128,0
1209,128,128,128,128,128,129,128,128,0
1211,128,128,127,128,126,128,127,127,0
1215,128,128,128,126,126,127,128,128,0
1218,127,127,126,128,125,129,123,126,0
1222,130,128,126,129,127,129,128,128,0
1225,127,127,127,127,127,129,128,128,0
1228,127,128,129,127,128,127,128,127,0
1231,128,126,128,129,127,127,124,125,0
1234,127,127,128,128,129,129,128,127,0
1236,129,128,127,127,127,129,129,128,0
1239,127,128,126,125,129,127,127,125,0
1243,129,126,127,129,128,127,125,127,0
1246,128,127,126,128,129,129,129,128,0
1249,128,128,127,126,130,129,128,129,0
1252,127,128,126,127,129,127,129,129,0
1255,127,127,128,128,128,127,129,129,0
1258,127,127,127,126,128,127,128,128,0
1261,128,128,126,128,127,127,128,128,0
1265,127,128,126,126,127,127,128,129,0
1269,127,126,126,130,127,127,122,126,0
1275,129,126,127,129,124,126,129,128,0
1279,127,128,127,125,128,128,128,128,0
1282,128,128,127,124,129,128,128,129,0
1286,127,127,127,126,124,127,129,128,0
1289,127,128,127,127,129,129,129,127,0
1291,127,127,127,128,128,129,128,128,0
1295,127,128,128,128,128,125,128,127,0
1298,125,127,128,128,127,126,128,127,0
1301,126,128,128,129,128,127,128,128,0
1305,128,128,127,130,129,127,128,128,0
1308,127,129,127,128,127,127,129,127,0
1311,127,127,129,130,128,127,123,126,0
1316,130,127,128,130,128,127,125,127,0
1318,127,128,128,125,128,129,129,128,0
1322,127,128,127,125,129,127,129,128,0
1325,127,128,128,126,128,128,130,129,0
1329,127,127,127,127,129,128,129,127,0
1332,128,128,127,130,128,129,128,127,0
1335,127,128,128,128,127,128,129,127,0
1340,127,127,128,127,125,125,124,127,0
1343,129,126,127,130,129,128,124,127,0
1346,130,128,127,126,128,130,129,128,0
1349,128,128,127,127,128,129,128,128,0
1351,127,128,127,126,125,126,129,128,0
1355,126,128,127,126,128,130,129,128,0
1358,127,128,128,128,128,129,128,128,0
1361,128,128,127,125,128,128,129,127,0
1365,127,127,128,127,126,126,128,126,0
1368,129,127,128,130,128,127,124,126,0
1373,129,127,129,126,127,129,128,128,0
1378,127,128,128,125,129,128,129,128,0
1381,127,128,128,125,127,128,128,127,0
1385,127,128,129,129,128,128,129,128,0
1388,128,128,128,127,128,129,127,128,0
1391,128,129,128,128,128,127,127,127,0
1394,127,128,127,128,127,127,123,126,0
1397,130,127,128,132,128,129,123,127,0
1399,126,128,128,126,127,128,128,129,0
1402,128,128,126,126,127,128,128,128,0
1406,127,128,127,125,127,126,128,128,0
1408,129,127,128,125,123,128,127,128,0
1412,127,128,127,128,127,128,127,128,0
1416,127,128,127,128,127,128,128,128,0
1419,126,127,127,126,127,124,129,128,0
1422,127,126,127,130,128,127,123,126,0
1426,128,126,128,129,123,128,128,128,0
1429,127,128,126,126,130,128,129,128,0
1432,127,127,129,126,127,127,131,128,0
1435,127,127,128,125,127,127,129,128,0
1438,127,128,128,127,128,128,128,128,0
1441,127,128,127,127,128,127,128,127,0
1444,128,128,128,128,126,126,123,126,0
1446,131,127,128,132,129,127,124,126,0
1450,130,128,127,126,127,128,128,128,0
1454,130,129,128,125,130,128,129,128,0
1457,127,129,127,125,129,127,130,127,0
1460,126,127,126,129,127,125,124,127,0
1464,128,128,126,129,130,127,129,128,0
1468,127,128,128,129,131,128,129,127,0
1474,127,128,127,129,127,127,126,128,0
1477,128,126,129,126,126,127,130,128,0
1480,128,126,129,127,126,128,127,127,0
1482,127,128,129,129,127,128,127,128,0
1485,127,127,127,128,126,128,129,127,0
1488,130,126,128,131,128,128,123,126,0
1492,131,126,127,128,129,128,129,128,0
1495,127,127,130,128,130,128,128,128,0
1498,126,128,128,127,128,126,130,128,0
1501,125,128,129,124,126,125,128,127,0
1506,127,126,129,128,127,126,128,128,0
1509,127,128,129,127,127,127,127,128,0
1512,128,128,127,127,127,126,128,127,0
1515,127,125,129,129,126,126,128,128,0
1518,130,128,127,130,126,127,127,127,0
1527,128,128,126,129,127,127,128,127,0
1531,127,128,127,127,126,126,127,127,0
1535,127,125,126,131,127,127,122,126,0
1538,130,127,127,130,127,127,125,127,0
1542,128,127,126,125,128,128,128,128,0
1546,127,129,128,125,126,127,128,128,0
1550,127,128,127,126,127,127,128,128,0
1554,130,126,127,125,127,127,127,128,0
1557,127,128,128,128,127,128,127,128,0
1560,128,128,126,127,128,128,128,128,0
1564,126,127,126,127,127,127,126,128,0
1568,128,126,127,128,127,129,128,127,0
1572,128,128,127,129,127,129,127,128,0
1578,127,128,128,128,129,129,127,127,0
1582,127,127,128,131,128,128,124,126,0
1585,130,127,127,130,127,128,128,128,0
1588,126,128,127,128,128,130,129,128,0
1591,129,128,127,127,127,128,130,128,0
1595,127,127,127,126,128,127,130,128,0
1598,127,127,127,128,128,128,128,129,0
1602,127,127,128,128,126,129,128,129,0
1606,127,127,127,129,128,128,128,128,0
1609,127,127,128,128,126,127,128,128,0
1614,126,127,127,128,128,128,128,128,0
1617,127,128,127,127,127,127,127,128,0
1620,128,128,127,127,128,127,127,128,0
1622,127,127,128,126,121,127,123,126,0
1626,130,127,127,129,126,127,123,124,0
1629,127,128,128,125,126,128,128,127,0
1632,128,129,127,126,127,128,128,128,0
1636,127,128,128,124,128,126,129,128,0
1640,127,128,128,125,128,127,128,128,0
1643,128,128,127,126,127,128,127,128,0
1646,127,129,127,127,128,129,128,128,0
1649,127,128,127,127,127,127,129,128,0
1653,127,127,126,130,129,128,123,126,0
1656,130,127,126,128,124,129,129,128,0
1659,128,128,128,127,129,128,129,128,0
1661,126,128,127,127,129,126,129,128,0
1665,128,126,127,125,127,127,129,129,0
1668,127,128,127,127,130,128,128,128,0
1673,127,127,126,127,130,128,128,129,0
1677,127,126,127,127,126,126,123,126,0
1684,130,127,128,130,129,128,124,126,0
1687,131,127,127,130,125,127,130,128,0
1693,128,128,127,128,128,129,129,128,0
1696,127,128,127,126,127,127,129,127,0
1699,128,126,128,129,127,128,126,127,0
1702,129,126,127,129,127,127,130,128,0
1706,127,129,127,129,130,130,129,129,0
1708,127,128,128,126,128,127,128,128,0
1712,127,127,129,127,128,127,130,128,0
1715,128,127,127,126,128,128,129,128,0
1719,127,128,127,126,128,128,129,127,0
1722,126,128,127,125,128,128,127,127,0
1726,130,127,127,129,128,128,123,127,0
1729,131,127,127,130,126,125,130,128,0
1733,127,128,128,126,128,129,128,128,0
1737,129,127,129,128,130,128,129,128,0
1740,125,126,127,127,127,129,128,128,0
1743,127,127,127,127,128,128,128,128,0
1747,127,129,128,126,129,130,129,127,0
1751,127,129,128,126,127,128,129,127,0
1755,127,126,129,130,128,128,123,126,0
1759,129,127,129,130,127,126,129,128,0
1765,129,129,128,129,131,128,129,128,0
1768,126,128,127,128,128,129,128,129,0
1771,127,127,129,127,128,128,130,128,0
1775,127,127,129,128,129,129,129,128,0
1778,129,129,126,128,130,128,129,127,0
1781,127,128,126,126,128,127,126,126,0
1785,126,125,127,131,128,126,123,126,0
1789,130,127,128,129,125,125,131,128,0
1793,129,129,126,127,130,131,127,128,0
1797,129,128,127,126,128,129,128,127,0
1800,127,127,127,129,125,129,130,128,0
1803,124,128,126,128,129,127,129,128,0
1807,127,128,127,129,126,128,128,128,0
1810,127,128,127,126,126,128,127,127,0
1813,126,128,126,126,126,125,128,127,0
1816,130,126,127,130,127,126,123,126,0
1822,127,128,127,124,127,127,128,127,0
1819,127,128,128,125,127,128,128,128,0
1827,127,126,127,127,129,127,129,128,0
1835,124,127,126,127,128,127,128,127,0
1839,128,128,127,127,126,128,127,128,0
1842,127,128,127,127,127,128,129,127,0
1846,127,127,127,128,128,127,128,128,0
1849,127,128,128,128,125,127,128,127,0
1852,127,128,129,129,127,127,127,128,0
1855,127,128,127,128,126,127,126,127,0
1859,127,127,127,126,119,127,122,125,0
1863,131,126,127,130,128,128,123,125,0
1866,129,126,128,124,129,128,128,128,0
1869,128,128,128,127,128,128,129,128,0
1874,127,128,127,126,129,128,129,128,0
1878,127,127,128,126,129,128,130,128,0
1881,127,128,128,128,127,128,128,127,0
1884,127,128,128,128,128,128,129,128,0
1887,127,128,128,127,127,125,128,128,0
1890,127,128,128,127,128,127,129,128,0
1893,128,128,128,127,128,127,127,128,0
1897,128,128,127,127,127,129,128,127,0
1902,128,127,129,127,129,124,123,126,0
1906,129,126,128,132,128,127,123,126,0
1908,129,127,126,129,124,127,129,127,0
1911,128,128,128,128,129,128,130,127,0
1915,127,128,128,126,129,127,129,127,0
1919,130,127,128,126,128,127,130,128,0
1922,127,128,127,126,128,128,128,127,0
1925,128,128,126,128,126,127,128,127,0
1929,127,127,127,128,127,127,128,128,0
1932,127,126,127,130,128,127,123,126,0
1936,130,126,127,130,124,126,127,127,0
1939,127,128,128,128,127,127,128,127,0
1941,127,128,127,125,128,127,128,128,0
1946,127,127,128,127,127,126,127,127,0
1949,127,127,128,126,128,129,129,128,0
1952,127,128,126,129,129,129,129,128,0
1955,127,128,126,129,128,128,128,127,0
1959,126,127,127,126,126,125,127,128,0
1961,127,128,128,128,129,127,128,128,0
1965,127,129,127,128,130,127,127,128,0
1968,127,128,127,128,129,123,125,126,0
1971,129,127,128,130,128,128,123,126,0
1974,129,127,127,131,129,128,125,127,0
1977,128,129,127,127,128,129,129,128,0
1980,126,129,128,128,129,129,130,128,0
1983,127,128,129,125,127,127,129,128,0
1986,127,128,127,128,127,128,128,128,0
1989,127,128,127,127,128,128,127,128,0
1993,128,128,127,126,128,127,129,128,0
1998,126,127,128,125,128,127,126,127,0
2004,130,126,128,129,129,128,123,126,0
2007,128,127,128,127,128,128,128,128,0
2010,128,128,128,127,129,128,129,128,0
2014,129,128,129,127,127,127,129,128,0
2017,124,128,127,127,128,128,129,128,0
2020,126,128,127,129,128,129,128,127,0
2023,128,128,127,128,128,129,128,128,0
2027,127,127,127,129,128,128,123,126,0
2030,129,127,127,131,128,128,123,127,0
2034,127,129,130,126,129,129,129,128,0
2039,128,128,127,126,131,128,129,128,0
2041,127,126,127,128,125,126,129,127,0
2045,127,126,130,128,126,127,127,128,0
2049,128,128,127,127,127,129,128,128,0
2051,128,129,127,128,127,128,128,128,0
2055,127,128,128,127,126,126,129,128,0
2058,127,127,128,127,125,124,128,128,0
2061,127,127,127,127,127,128,127,128,0
2065,128,128,127,128,128,128,128,128,0
2069,126,127,128,131,128,127,124,126,0
2072,130,126,128,130,128,127,123,126,0
2075,131,128,128,128,131,129,131,128,0
2079,127,128,127,127,128,128,129,128,0
2082,127,128,128,127,128,127,130,129,0
2085,126,128,126,128,128,129,130,128,0
2088,127,128,127,129,126,129,128,128,0
2090,127,128,129,128,127,128,129,129,0
2094,126,128,127,126,127,123,125,127,0
2098,129,127,127,130,128,127,123,126,0
2102,129,128,127,128,132,128,128,128,0
2106,130,126,130,127,127,129,127,128,0
2111,127,128,129,127,127,127,129,127,0
2115,126,126,128,126,128,128,128,128,0
2118,127,128,127,129,127,128,127,128,0
2120,128,128,126,129,126,128,128,128,0
2124,127,128,128,128,127,127,128,127,0
2132,126,127,127,128,127,125,128,126,0
2135,127,128,127,127,127,128,127,128,0
2140,128,128,127,129,127,128,128,128,0
2143,127,127,128,126,126,124,128,128,0
2146,128,126,126,130,128,127,121,125,0
2150,131,128,127,130,126,126,129,128,0
2153,126,128,127,126,129,128,129,128,0
2156,127,128,126,128,128,127,128,128,0
2159,127,128,127,126,128,126,128,128,0
2162,126,127,129,128,129,128,128,127,0
2165,128,128,128,129,127,127,127,128,0
2168,127,128,128,128,128,126,127,127,0
2171,128,126,127,125,128,126,121,125,0
2176,130,126,128,131,126,126,128,127,0
2179,128,128,127,126,128,129,128,128,0
2182,128,128,128,127,127,125,129,128,0
2185,127,127,127,128,124,126,125,127,0
2188,128,127,128,129,127,127,125,126,0
2190,126,129,127,127,129,130,128,129,0
2195,128,129,127,127,128,128,129,128,0
2198,126,128,128,125,128,126,128,128,0
2201,127,128,128,127,128,128,128,128,0
2204,128,129,127,127,129,128,127,128,0
2207,127,128,127,128,129,129,128,128,0
2211,126,127,127,127,128,127,126,126,0
2216,130,128,127,129,128,127,124,126,0
2220,128,127,128,126,128,129,130,128,0
2223,127,128,129,127,127,128,130,128,0
2226,126,128,128,127,125,128,128,128,0
2228,127,128,128,128,128,128,128,128,0
2231,127,128,128,128,128,128,128,128,0
2236,127,129,127,128,128,128,129,128,0
2239,128,127,128,126,126,126,129,129,0
2242,127,126,129,130,129,127,123,126,0
2245,130,126,127,126,129,129,130,128,0
2249,127,128,127,129,128,128,130,128,0
2252,127,128,127,125,128,127,130,128,0
2256,126,127,127,126,128,126,129,128,0
2258,127,128,127,126,127,127,127,128,0
2261,128,128,127,129,129,127,128,127,0
2265,126,127,128,130,127,126,122,125,0
2269,130,126,128,130,127,127,123,126,0
2273,128,126,127,127,131,128,129,128,0
2276,127,128,127,127,128,128,128,128,0
2279,126,128,127,125,128,128,129,128,0
2282,126,128,128,125,128,127,128,128,0
2285,127,127,127,128,126,128,127,128,0
2289,127,128,127,129,128,129,127,128,0
2293,127,128,128,128,129,128,128,128,0
2296,127,125,128,130,128,128,122,126,0
2299,129,126,128,130,124,129,128,128,0
2302,128,127,127,128,128,129,129,128,0
2305,128,128,127,125,128,127,130,127,0
2309,126,127,129,127,126,127,130,128,0
2318,127,127,127,126,127,127,128,127,0
2324,128,128,127,128,127,127,129,128,0
2329,128,128,127,126,128,124,128,128,0
2332,127,127,128,126,124,127,128,127,0
2335,130,128,128,131,127,128,123,127,0
2338,126,128,128,126,127,128,129,128,0
2341,127,128,128,125,128,126,126,127,0
2345,130,127,128,129,128,128,124,126,0
2348,130,126,126,124,129,130,130,127,0
2355,129,129,128,125,128,129,128,128,0
2359,128,128,127,128,127,128,128,128,0
2363,128,128,128,125,127,127,130,128,0
2366,126,127,127,129,128,127,128,128,0
2368,128,128,127,128,128,128,127,128,0
2393,127,128,128,129,127,127,128,128,0
2398,126,128,127,128,126,127,128,127,0
2403,128,127,128,128,128,127,127,127,0
2407,127,128,127,129,129,129,128,128,0
2411,127,129,127,127,126,127,127,128,0
2415,127,127,128,128,126,126,122,125,0
2419,131,126,128,130,127,128,123,126,0
2422,128,125,129,126,129,130,128,128,0
2426,128,128,127,125,129,128,129,128,0
2430,125,126,129,126,128,127,129,129,0
2433,126,128,127,127,124,127,128,128,0
2436,127,128,127,127,128,129,128,127,0
2441,127,128,127,128,126,127,128,127,0
2444,128,127,128,132,129,128,124,126,0
2448,130,127,128,132,127,127,126,128,0
2454,127,129,127,128,131,129,130,128,0
2458,127,128,129,128,128,129,129,128,0
2463,126,128,129,127,131,127,129,129,0
2468,126,128,129,127,131,128,129,128,0
2475,127,128,128,128,129,128,128,128,0
2479,128,129,128,128,128,127,129,129,0
2482,127,128,128,127,128,127,129,128,0
2486,127,128,128,131,127,127,123,126,0
2490,130,127,127,128,127,128,129,127,0
2493,128,128,127,128,128,128,129,127,0
2497,127,129,127,126,128,125,128,128,0
2500,130,126,127,130,127,126,124,127,0
2504,129,125,127,127,127,129,128,128,0
2507,127,128,127,128,126,129,129,128,0
2511,127,128,127,128,125,127,129,127,0
2514,126,127,127,126,126,128,128,127,0
2517,127,127,127,129,126,129,128,127,0
2520,128,128,127,129,126,128,127,127,0
2523,127,127,128,128,128,126,127,128,0
2527,127,126,129,129,126,129,122,126,0
2529,132,127,127,128,122,130,128,128,0
2533,129,128,127,127,128,127,128,128,0
2536,128,127,127,125,127,127,129,128,0
2539,126,127,128,126,126,126,128,128,0
2542,127,128,128,128,128,128,129,128,0
2546,127,129,127,127,128,127,128,128,0
2549,126,128,129,131,128,127,123,126,0
2552,130,126,127,130,128,128,124,126,0
2557,129,127,127,127,129,129,128,128,0
2560,127,129,127,125,128,130,128,128,0
2563,127,128,129,125,128,127,128,128,0
2566,126,127,130,124,129,128,129,128,0
2569,127,128,127,126,127,129,127,128,0
2573,127,128,128,127,128,128,128,128,0
2579,128,128,129,127,126,126,128,127,0
2584,128,126,127,132,128,127,124,126,0
2587,130,127,128,129,127,129,129,128,0
2590,128,128,126,126,130,129,131,128,0
2595,127,129,126,125,128,127,129,128,0
2598,126,126,129,127,128,126,129,127,0
2601,127,126,129,125,128,128,129,127,0
2604,128,128,127,129,128,128,129,128,0
2607,126,128,127,126,128,127,126,126,0
2611,128,126,126,130,126,126,125,126,0
2615,128,127,126,130,127,126,127,128,0
2618,127,128,128,129,128,129,128,128,0
2621,127,128,127,128,129,127,129,128,0
2631,126,128,127,126,128,127,128,127,0
2636,128,128,130,126,129,128,127,128,0
2639,127,128,127,129,129,128,127,128,0
2644,127,127,126,127,128,127,128,126,0
2648,129,126,128,131,128,128,123,126,0
2651,130,126,127,130,126,124,130,129,0
2654,127,128,129,128,130,128,130,128,0
2657,127,128,127,125,128,128,131,129,0
2667,128,127,127,126,127,127,132,129,0
2671,126,128,126,126,129,129,130,128,0
2674,127,128,127,126,128,127,128,128,0
2678,127,128,127,128,127,127,129,127,0
2681,128,128,127,127,127,124,129,128,0
2684,127,126,127,132,128,127,123,127,0
2688,127,127,128,128,128,129,129,128,0
2691,127,128,127,125,129,128,129,128,0
2694,127,128,128,125,127,126,128,128,0
2699,127,128,128,126,128,127,129,128,0
2706,126,127,128,128,128,129,128,128,0
2711,128,129,127,127,127,128,129,128,0
2714,126,128,127,127,127,125,122,125,0
2717,131,127,128,132,126,127,123,126,0
2721,129,127,130,129,128,129,129,128,0
2728,127,128,127,126,127,127,128,129,0
2724,126,128,130,128,128,128,128,128,0
2732,126,127,127,127,128,126,128,127,0
2740,128,128,127,128,128,127,128,128,0
2744,127,128,126,126,129,127,128,128,0
2747,127,127,130,127,127,126,128,128,0
2751,128,127,128,127,127,126,127,126,0
2754,129,127,127,130,125,125,128,128,0
2758,128,128,128,128,129,129,128,127,0
2761,127,127,128,128,127,126,122,125,0
2765,130,126,128,131,129,128,123,126,0
2777,127,127,127,128,128,129,128,127,0
2781,128,128,128,126,129,129,129,128,0
2784,126,128,126,124,129,128,130,128,0
2788,127,128,127,125,127,128,128,128,0
2791,127,128,127,127,128,128,127,128,0
2794,128,128,128,127,128,128,128,128,0
2798,127,128,128,127,125,126,128,128,0
2801,127,127,128,126,127,127,128,126,0
2804,128,127,128,129,128,128,127,128,0
2807,127,127,128,129,127,128,128,128,0
2810,127,128,127,127,125,127,123,125,0
2814,129,126,129,131,127,128,123,125,0
2817,130,126,128,128,128,129,129,128,0
2826,127,127,128,127,130,128,129,129,0
2822,128,128,128,125,129,130,129,128,0
2832,126,127,128,126,128,128,130,128,0
2835,126,128,127,125,129,129,128,128,0
2839,127,128,128,127,128,127,127,128,0
2842,127,128,127,126,129,127,127,127,0
2851,126,127,128,127,128,127,128,128,0
2855,128,128,128,128,128,127,128,128,0
2859,128,129,127,129,127,128,127,128,0
2862,127,128,127,128,126,125,129,128,0
2866,127,126,128,131,127,127,124,126,0
2869,130,127,128,131,126,128,128,127,0
2872,128,129,130,126,128,128,129,128,0
2876,127,128,127,125,129,129,129,128,0
2879,127,128,128,125,127,124,129,128,0
2882,127,127,127,126,126,127,128,128,0
2890,128,128,128,128,128,128,129,128,0
2894,128,128,127,126,127,127,128,128,0
2898,127,127,128,126,127,124,124,127,0
2901,129,128,127,131,127,127,124,126,0
2905,128,128,126,124,129,128,129,128,0
2908,128,128,128,125,128,128,130,128,0
2911,126,127,127,125,128,127,128,127,0
2915,127,128,128,125,129,127,128,128,0
2918,127,128,128,129,128,128,128,128,0
2921,127,128,128,128,128,128,128,128,0
2925,127,128,127,126,123,126,123,126,0
2930,131,126,128,129,127,127,123,126,0
2933,131,128,127,128,128,129,128,128,0
2937,127,128,127,126,128,128,129,128,0
2941,126,128,127,125,127,127,129,129,0
2947,126,128,127,126,128,127,129,129,0
2951,127,128,126,128,128,128,129,128,0
2955,127,128,127,126,127,127,129,127,0
2958,126,128,127,126,123,126,123,126,0
2965,129,126,127,131,128,126,123,126,0
2969,126,126,129,126,129,128,129,128,0
2972,126,128,128,129,128,127,128,128,0
2975,127,128,129,128,128,125,129,128,0
2979,127,125,127,126,129,127,129,128,0
2982,127,127,127,129,128,128,127,128,0
2986,127,128,127,129,129,128,127,128,0
2991,127,127,128,127,123,126,127,127,0
3000,130,126,127,130,127,128,123,125,0
3005,129,127,128,126,128,129,129,128,0
3009,127,128,127,129,129,129,130,127,0
3013,125,128,127,126,127,127,129,127,0
3016,126,128,128,125,128,125,129,128,0
3020,128,128,127,126,127,128,128,128,0
3023,128,128,128,128,128,128,128,127,0
3026,127,128,128,129,128,124,129,127,0
3036,126,127,128,125,127,127,129,128,0
3039,128,128,128,127,127,127,128,128,0
3043,128,128,127,128,128,127,127,127,0
3046,127,128,127,130,128,126,122,125,0
3049,128,126,128,130,128,128,122,126,0
3053,129,127,128,126,128,128,127,128,0
3056,127,128,130,126,128,130,128,127,0
3060,127,128,128,126,128,128,129,128,0
3063,127,128,129,126,127,127,129,128,0
3066,127,127,127,129,127,128,128,128,0
3071,127,128,127,129,127,127,128,128,0
3080,128,128,126,127,127,127,129,128,0
3083,126,126,127,131,128,127,124,126,0
3087,130,126,126,126,128,129,129,128,0
3090,128,128,127,126,127,127,129,128,0
3094,127,128,128,126,127,127,129,128,0
3097,127,127,128,126,127,126,128,127,0
3101,127,127,127,127,127,128,127,127,0
3105,128,128,126,127,128,127,127,128,0
3113,128,128,127,127,128,126,128,127,0
3116,127,128,128,128,128,128,123,126,0
3120,130,127,127,130,128,126,129,128,0
3123,128,128,127,128,129,128,129,128,0
3127,127,128,127,127,130,127,130,128,0
3130,128,128,128,127,128,125,130,127,0
3133,127,127,128,127,128,127,129,127,0
3137,128,128,128,128,129,129,128,128,0
3140,127,128,128,127,127,124,128,127,0
3144,127,128,128,126,124,128,124,126,0
3149,130,127,128,131,127,128,123,126,0
3153,126,129,128,129,128,129,129,129,0
3156,127,128,127,128,127,126,129,128,0
3159,126,128,128,125,128,127,127,128,0
3162,127,128,128,126,129,128,128,128,0
3165,128,128,128,127,127,129,129,127,0
3185,128,128,128,127,127,128,129,128,0
3189,127,127,127,127,127,127,129,128,0
3193,126,127,127,126,121,127,121,126,0
3196,130,128,127,132,126,126,128,128,0
3202,129,129,127,127,125,127,127,128,0
3206,127,128,128,125,128,127,128,128,0
3211,126,127,128,125,128,126,128,128,0
3218,128,128,127,128,128,129,128,128,0
3223,127,128,127,127,128,128,128,128,0
3227,126,126,127,126,129,128,128,126,0
3231,130,127,126,129,128,128,124,127,0
3235,128,127,128,126,130,130,129,128,0
3238,127,128,127,128,129,129,129,128,0
3241,126,128,127,127,129,127,129,128,0
3245,126,127,127,127,127,127,129,128,0
3248,127,128,127,130,129,127,127,128,0
3251,128,128,128,129,129,128,127,128,0
3255,126,127,128,128,127,126,126,126,0
3258,129,127,128,132,128,127,122,126,0
3261,131,128,128,126,129,127,129,128,0
3266,128,128,126,127,130,127,128,128,0
3270,127,128,127,126,129,127,129,128,0
3273,127,128,128,128,128,126,128,127,0
3276,128,128,128,127,127,129,128,128,0
3279,127,128,127,127,127,128,129,129,0
3281,126,127,126,128,127,126,127,126,0
3284,129,127,127,130,127,128,124,126,0
3288,129,128,126,127,128,128,129,128,0
3291,129,128,128,128,129,127,129,127,0
3294,127,128,128,128,126,127,129,128,0
3297,127,127,128,127,127,126,129,128,0
3300,127,127,128,128,128,128,128,128,0
3307,127,128,128,128,128,128,128,128,0
3311,127,128,127,128,129,127,129,127,0
3315,127,127,128,126,128,126,129,128,0
3318,126,128,127,127,128,127,128,127,0
3322,128,128,127,127,127,128,127,127,0
3326,128,128,127,127,126,126,128,128,0
3330,127,126,128,130,127,127,122,126,0
3336,131,127,127,130,126,127,124,126,0
3343,128,128,128,126,127,128,130,128,0
3348,127,128,127,126,128,128,130,127,0
3352,127,127,129,125,125,127,124,126,0
3356,129,126,128,130,127,125,131,128,0
3360,128,129,127,126,129,129,129,128,0
3363,128,129,127,126,130,128,130,128,0
3371,127,127,127,125,128,127,130,128,0
3375,126,127,128,126,129,128,127,128,0
3383,127,128,129,128,128,128,126,127,0
3387,126,127,127,128,128,127,128,129,0
3420,127,127,128,127,125,125,124,126,0
3427,131,126,128,131,126,126,125,126,0
3433,127,128,127,128,126,129,130,128,0
3488,127,129,128,127,127,128,129,128,0
3499,127,127,127,126,126,127,128,128,0
3505,127,127,127,126,124,128,128,127,0
3509,127,128,126,129,128,128,127,128,0
3514,127,128,127,128,128,128,127,128,0
3517,127,128,128,127,126,126,128,128,0
3559,127,125,128,131,127,128,122,127,0
3567,130,127,126,127,130,128,129,128,0
3573,127,128,128,128,128,127,130,128,0
3578,127,128,128,127,125,126,128,127,0
3581,127,127,128,126,128,127,128,128,0
3627,128,128,127,128,129,129,127,127,0
3643,128,128,127,127,129,128,127,127,0
3649,127,128,128,127,128,125,124,127,0
3691,129,126,127,130,128,129,124,126,0
3699,130,126,128,127,129,129,128,128,0
3707,128,128,126,128,129,129,128,128,0
3714,127,127,127,125,127,126,129,128,0
3722,125,127,127,126,127,128,130,128,0
3726,128,128,129,126,128,129,128,127,0
3730,127,129,127,127,129,129,128,128,0
3734,126,127,127,126,122,126,127,128,0
3738,127,127,128,126,127,128,122,126,0
3741,130,127,127,128,128,128,128,128,0
3745,127,128,127,128,128,129,130,127,0
3748,127,128,127,128,127,128,130,127,0
3751,127,126,127,130,128,129,124,126,0
3754,129,126,127,128,128,128,129,128,0
3758,128,128,126,127,127,127,129,128,0
3761,127,128,127,125,127,127,130,128,0
3764,127,128,128,126,128,127,129,128,0
3767,126,128,128,128,129,128,128,127,0
3771,127,128,128,128,129,128,128,128,0
3774,127,128,127,127,127,126,128,127,0
3778,127,127,128,131,129,129,123,126,0
3781,130,127,128,129,126,128,129,127,0
3785,128,129,128,125,130,129,129,127,0
3788,127,128,128,126,129,127,129,128,0
3791,127,128,127,126,129,127,130,128,0
3795,128,128,128,127,129,128,128,128,0
3809,128,126,127,130,128,128,123,126,0
3806,128,127,127,127,125,127,128,128,0
3802,127,128,128,128,128,129,127,128,0
3814,130,126,128,129,125,127,128,128,0
3828,128,127,128,126,128,129,128,128,0
3832,127,128,128,127,128,128,130,128,0
3836,126,128,126,125,127,127,129,129,0
3839,126,127,126,127,129,127,127,127,0
3842,127,128,128,128,128,127,126,128,0
3846,127,128,127,127,129,126,127,128,0
3849,126,126,128,126,127,124,127,128,0
3853,127,126,128,130,127,128,122,127,0
3856,130,125,129,127,128,128,128,128,0
3860,128,128,128,127,129,128,129,128,0
3863,127,127,128,125,127,127,129,128,0
3868,127,128,128,126,128,127,128,128,0
3871,127,128,127,128,129,127,128,128,0
3874,128,128,126,128,128,126,127,127,0
3878,127,126,127,132,128,128,124,126,0
3881,130,126,127,131,127,128,125,125,0
3885,127,128,130,130,127,129,130,127,0
3888,128,128,128,129,127,128,130,128,0
3892,127,127,130,126,127,127,130,128,0
3895,127,125,129,128,127,128,130,128,0
3898,127,128,126,127,128,127,129,127,0
3902,127,128,127,128,129,128,129,127,0
3905,127,127,127,126,127,127,128,128,0
3908,128,126,128,131,127,129,122,126,0
3911,130,128,127,129,128,129,128,128,0
3961,127,128,127,128,127,128,128,128,0
4029,126,128,127,127,128,128,128,128,0
4040,127,128,128,127,129,127,128,127,0
4047,128,128,127,128,127,128,128,128,0
4051,128,128,127,128,128,128,129,128,0
4055,127,127,127,126,125,128,123,126,0
4058,128,127,127,129,128,128,123,127,0
4061,127,128,130,125,127,128,129,128,0
4065,127,128,128,127,127,127,129,128,0
4068,127,127,130,125,128,127,130,128,0
4071,127,127,127,127,127,127,130,127,0
4075,127,128,127,128,128,129,130,128,0
4078,127,128,127,127,127,127,129,127,0
4081,127,128,126,126,127,126,128,128,0
4085,126,127,127,127,127,127,128,128,0
4088,128,128,128,126,127,128,126,127,0
4091,129,128,128,127,128,127,126,128,0
4096,127,127,128,129,128,127,123,126,0
4100,130,126,129,130,129,128,124,126,0
4103,131,127,128,128,129,128,129,128,0
4106,127,128,127,125,129,129,129,127,0
4109,127,128,126,125,129,128,130,127,0
4111,126,128,129,125,129,128,129,129,0
4114,127,128,127,126,128,128,127,127,0
4117,128,128,128,127,126,128,127,127,0
4123,127,127,128,127,127,125,125,127,0
4126,126,127,128,127,126,126,127,128,0
4130,127,127,127,127,127,128,127,128,0
4135,128,128,127,128,127,127,127,128,0
4139,129,127,128,127,121,127,128,128,0
4142,127,127,126,127,128,123,122,126,0
4145,130,127,126,129,128,128,123,126,0
4233,128,128,127,126,127,129,128,128,0
4248,128,128,127,126,127,127,128,128,0
4257,127,128,127,125,126,124,128,129,0
4261,127,128,127,126,127,128,126,128,0
4266,128,129,125,127,127,129,124,128,0
4270,128,128,127,126,126,127,126,128,0
4276,127,127,127,126,123,128,121,127,0
4289,129,126,126,130,128,129,121,126,0
4293,129,128,128,127,128,129,127,128,0
4296,128,128,126,126,128,128,128,128,0
4300,127,128,128,127,129,128,129,127,0
4303,127,127,127,126,128,128,128,127,0
4307,128,128,128,129,127,128,127,128,0
4311,128,128,127,128,127,127,129,128,0
4315,126,126,127,127,126,128,122,125,0
4318,130,126,127,131,129,128,123,126,0
4321,126,129,130,127,129,128,128,128,0
4325,128,128,127,128,128,127,129,128,0
4328,126,127,127,127,129,128,129,128,0
4332,126,127,127,127,129,128,129,128,0
4336,128,128,127,128,128,129,128,128,0
4341,127,128,127,128,129,128,129,128,0
4345,127,127,128,128,125,128,124,126,0
4350,129,126,127,131,130,129,125,126,0
4353,128,128,128,127,128,129,129,128,0
4356,128,128,128,127,128,128,129,128,0
4358,126,128,127,126,125,126,128,128,0
4361,127,127,129,126,128,128,129,128,0
4365,127,128,128,129,126,129,129,128,0
4368,128,128,127,129,128,129,129,128,0
4371,127,127,127,128,125,126,129,127,0
4375,127,128,128,128,127,124,124,125,0
4378,130,128,127,131,129,128,126,128,0
4382,128,128,128,127,129,127,128,128,0
4386,127,128,128,126,127,127,129,128,0
4389,127,126,127,127,126,127,129,128,0
4392,128,128,128,129,128,129,128,128,0
4397,128,128,127,129,128,128,128,128,0
4400,127,127,128,127,124,125,128,128,0
4403,126,125,129,128,128,128,126,126,0
4406,130,127,128,130,126,126,128,128,0
4409,128,128,128,128,129,128,128,128,0
4412,128,128,128,126,127,125,128,128,0
4416,127,126,127,131,130,129,123,126,0
4419,129,127,127,128,129,130,129,128,0
4423,128,128,126,125,128,129,129,129,0
4425,127,128,127,125,128,127,130,129,0
4428,127,126,129,126,128,127,129,128,0
4433,127,128,127,128,128,128,128,127,0
4435,128,128,127,129,127,128,129,128,0
4440,127,128,126,127,126,126,128,127,0
4445,127,127,128,127,126,128,124,126,0
4451,131,127,127,132,127,124,129,128,0
4455,127,128,128,128,128,126,129,128,0
4458,127,127,128,127,128,127,127,128,0
4460,127,127,127,126,128,126,128,127,0
4464,127,127,129,126,128,128,128,128,0
4467,127,128,128,128,126,128,127,128,0
4469,127,128,127,127,128,124,123,126,0
4472,130,127,127,130,127,128,124,126,0
4475,129,127,126,129,124,128,129,129,0
4479,127,129,127,128,129,130,130,128,0
4482,127,128,126,127,128,128,128,128,0
4486,126,128,127,125,127,128,128,128,0
4490,129,128,127,128,128,127,128,127,0
4493,127,127,127,128,128,128,128,128,0
4496,127,128,127,127,128,126,128,128,0
4500,126,126,127,130,125,125,125,126,0
4503,129,127,127,128,126,127,127,127,0
4506,125,128,128,126,129,128,129,128,0
4509,127,128,127,127,128,128,130,128,0
4517,127,128,128,127,127,129,129,128,0
4514,127,127,128,126,124,127,129,128,0
4520,128,128,127,127,128,129,128,128,0
4525,127,127,128,127,127,127,127,129,0
4527,127,125,127,130,130,128,123,127,0
4530,130,127,127,131,129,128,128,129,0
4533,127,128,127,127,129,129,128,128,0
4536,127,128,128,127,132,127,128,128,0
4540,127,127,128,127,128,127,128,128,0
4545,128,127,128,127,128,128,127,127,0
4549,128,128,128,128,129,129,127,128,0
4555,128,128,126,128,128,128,128,128,0
4558,128,127,127,130,127,129,123,126,0
4561,128,126,128,131,129,129,124,127,0
4564,126,128,129,127,129,128,130,128,0
4566,126,128,128,127,127,128,130,128,0
4569,127,128,129,125,129,127,130,128,0
4573,126,127,128,127,128,127,129,127,0
4579,126,128,128,127,128,128,128,128,0
4586,128,128,128,126,127,127,128,128,0
4589,127,128,129,126,128,126,128,127,0
4593,128,127,128,128,126,126,125,126,0
4596,127,128,128,128,127,127,128,128,0
4599,127,128,127,128,128,128,127,128,0
4603,126,128,127,127,127,127,128,128,0
4606,127,128,128,126,127,126,129,128,0
4609,127,128,128,128,128,126,126,127,0
4612,127,127,128,128,128,128,128,128,0
4615,128,127,127,128,129,129,123,126,0
4618,130,126,127,129,128,128,125,125,0
4621,131,127,126,125,129,129,129,127,0
4624,128,128,127,127,130,129,129,127,0
4626,127,128,126,126,127,127,128,128,0
4629,126,127,127,126,128,128,128,129,0
4634,127,127,127,127,129,128,127,128,0
4637,127,128,127,128,130,128,128,128,0
4639,127,127,127,127,128,126,127,128,0
4643,127,128,127,127,126,126,129,128,0
4646,127,128,127,127,127,128,128,127,0
4649,128,128,128,127,126,126,129,127,0
4654,128,127,126,128,121,127,123,125,0
4660,131,127,127,129,127,127,124,126,0
4666,130,127,128,128,123,127,127,128,0
4669,126,128,126,126,126,127,128,128,0
4672,128,127,128,125,127,125,127,128,0
4675,125,128,130,126,124,126,128,127,0
4679,127,127,127,128,129,128,128,128,0
4681,127,128,127,128,128,130,128,128,0
4690,128,128,127,128,129,129,128,128,0
4692,127,126,128,127,124,127,126,126,0
4695,130,127,128,132,129,129,125,125,0
4699,127,128,127,129,128,129,129,127,0
4702,127,127,128,128,128,127,130,128,0
4705,127,127,128,127,127,126,129,128,0
4709,127,128,130,127,127,128,128,128,0
4712,127,127,128,129,126,128,128,127,0
4716,127,128,127,129,123,127,128,128,0
4719,126,127,128,129,126,125,128,126,0
4721,126,127,127,129,128,129,123,126,0
4725,130,128,127,128,123,130,129,128,0
4731,127,128,128,124,129,129,129,128,0
4735,127,126,129,123,129,129,128,128,0
4740,125,128,127,125,130,130,129,128,0
4743,127,128,127,127,128,131,128,128,0
4746,127,128,127,128,127,129,128,128,0
4749,126,127,127,131,128,129,122,126,0
4753,130,127,128,131,128,129,125,129,0
4758,127,128,128,127,130,131,129,128,0
4761,127,129,129,126,128,129,129,128,0
4764,127,129,127,126,128,125,129,128,0
4768,127,128,129,127,126,128,128,128,0
4772,127,128,127,128,127,127,128,129,0
4777,127,128,127,127,127,127,127,128,0
4783,127,128,128,126,126,123,127,128,0
4787,125,128,129,125,122,126,127,128,0
4790,128,128,127,127,128,127,128,128,0
4793,128,129,128,127,128,127,128,127,0
4797,127,127,128,130,129,128,122,126,0
4800,131,126,124,129,129,128,124,126,0
4803,129,127,120,125,128,128,129,127,0
4807,128,128,119,126,128,128,128,128,0
4810,127,128,122,125,127,125,128,128,0
4813,125,128,122,126,127,128,128,128,0
4817,128,128,124,130,127,128,127,128,0
4820,127,129,125,129,127,128,127,128,0
4824,127,128,126,128,125,125,128,128,0
4827,127,127,128,133,129,130,124,126,0
4830,129,127,127,129,127,129,128,128,0
4833,128,127,129,128,127,128,127,128,0
4837,128,127,127,128,126,127,128,128,0
4840,124,127,127,128,127,123,127,128,0
4844,128,127,129,128,127,128,127,128,0
4847,128,128,129,128,129,128,129,128,0
4849,127,127,129,127,127,126,125,125,0
4852,130,126,130,130,127,129,124,126,0
4855,130,127,129,128,128,128,129,127,0
4858,128,128,130,124,128,129,130,128,0
4861,127,128,127,124,128,126,129,127,0
4863,127,128,128,125,127,127,130,127,0
4866,126,127,130,125,128,128,128,127,0
4869,127,127,130,127,128,129,128,128,0
4873,127,128,129,126,129,128,128,127,0
4877,131,127,129,130,127,127,124,126,0
4885,130,127,129,132,127,125,129,128,0
4889,127,128,127,126,129,128,131,129,0
4894,128,128,129,125,128,126,130,128,0
4898,127,126,129,128,127,126,128,128,0
4901,127,129,129,129,127,128,128,127,0
4906,128,128,130,129,127,129,128,127,0
4909,128,128,129,127,129,128,128,128,0
4913,126,127,129,127,127,127,129,128,0
4915,127,127,129,127,127,129,127,127,0
4918,127,128,129,127,127,130,128,128,0
4923,128,128,128,127,122,128,129,128,0
4926,128,127,128,129,128,129,124,126,0
4929,131,127,128,129,129,129,124,126,0
4932,130,128,128,126,128,128,130,128,0
4935,126,128,130,126,128,127,131,128,0
4939,127,126,128,126,127,125,130,128,0
4942,127,126,128,125,127,127,129,128,0
4944,127,128,129,126,127,128,128,127,0
4947,127,129,128,127,128,128,130,128,0
4950,127,126,128,127,127,129,123,126,0
4955,130,127,127,132,126,128,124,126,0
4957,126,127,127,128,128,127,127,128,0
4960,128,128,128,127,129,128,128,128,0
4963,129,128,127,126,128,126,128,128,0
4969,127,128,130,126,129,128,127,127,0
4972,128,128,127,128,128,130,128,127,0
4977,127,128,128,128,128,128,129,128,0
4981,126,127,128,129,126,126,128,128,0
4985,128,126,127,132,129,129,123,126,0
4989,131,128,127,128,128,128,129,128,0
4993,128,129,130,129,128,128,130,128,0
4999,127,128,127,126,130,127,129,128,0
5003,129,128,127,127,128,127,127,128,0
5006,127,128,127,129,127,129,127,128,0
5010,128,127,128,128,127,127,127,127,0
5013,127,127,128,125,125,126,127,127,0
5016,128,128,126,129,126,128,123,126,0
5019,129,127,128,126,126,128,129,128,0
5023,128,128,129,125,125,127,128,129,0
5026,127,128,127,126,125,126,127,128,0
5029,127,128,128,126,127,125,128,127,0
5032,128,128,127,127,129,129,128,128,0
5035,127,128,127,127,129,128,129,129,0
5038,128,128,127,126,126,125,128,128,0
5041,127,127,128,130,131,129,124,126,0
5045,130,127,128,130,125,130,128,129,0
5049,126,128,127,127,128,130,128,128,0
5052,128,128,127,125,128,127,129,128,0
5056,126,127,127,127,126,127,130,128,0
5059,127,128,127,128,128,127,128,128,0
5064,129,128,127,128,128,129,128,128,0
5068,127,128,127,127,125,126,127,128,0
5071,126,126,130,131,129,129,123,125,0
5075,131,127,128,131,129,129,128,127,0
5079,128,128,129,129,129,129,129,127,0
5083,127,128,127,126,128,127,129,127,0
5086,126,128,128,124,126,127,129,128,0
5090,127,129,129,123,128,128,128,127,0
5095,127,128,127,126,128,128,128,128,0
5099,127,128,127,124,128,127,130,128,0
5104,127,127,126,128,129,128,122,126,0
5111,130,127,127,129,126,126,129,127,0
5114,128,128,129,127,127,129,127,128,0
5118,127,128,127,126,128,128,128,126,0
5121,126,128,126,126,128,128,129,128,0
5124,127,128,126,126,129,128,129,127,0
5127,128,128,128,126,126,128,128,128,0
5131,127,128,127,126,127,125,129,128,0
5134,126,127,128,127,127,125,128,127,0
5138,127,127,128,129,125,127,126,128,0
5141,128,128,128,129,128,128,128,128,0
5144,128,128,128,129,127,129,123,126,0
5147,129,127,126,130,129,128,122,126,0
5150,129,127,127,130,126,125,130,127,0
5153,127,128,127,126,129,130,128,126,0
5156,128,128,127,125,127,127,129,128,0
5159,127,126,130,125,125,127,129,128,0
5162,128,128,128,127,129,128,128,128,0
5165,127,127,126,127,126,127,127,128,0
5168,127,127,128,126,126,126,128,128,0
5171,127,127,128,127,127,125,127,127,0
5174,127,126,128,127,127,128,127,128,0
5178,128,128,128,128,129,128,128,128,0
5181,127,128,127,127,127,127,128,127,0
5186,130,127,127,130,128,128,124,126,0
5190,130,127,126,131,129,128,124,127,0
5193,128,126,129,125,129,128,129,128,0
5196,127,126,130,128,129,126,130,128,0
5199,126,126,127,127,128,126,130,128,0
5202,126,126,129,127,127,128,128,128,0
5206,126,129,127,125,129,129,128,128,0
5211,126,129,127,126,127,129,129,128,0
5217,126,128,128,126,127,127,128,128,0
5221,129,127,128,126,129,126,124,127,0
5224,129,128,127,131,124,126,128,128,0
5227,127,129,128,127,128,129,127,128,0
5230,128,128,129,128,127,127,129,127,0
5235,132,127,127,132,129,128,123,126,0
5238,130,127,128,128,128,128,130,129,0
5240,127,129,126,130,132,128,129,128,0
5243,127,129,127,128,129,127,131,128,0
5247,125,127,128,128,130,127,129,128,0
5250,127,128,127,129,128,127,128,128,0
5253,127,128,126,131,127,129,129,128,0
5256,128,128,129,130,125,127,129,127,0
5259,127,127,128,129,127,127,129,128,0
5262,127,128,126,129,129,129,127,128,0
5266,127,128,127,130,128,128,128,127,0
5270,127,127,128,127,127,122,123,126,0
5273,130,126,127,131,128,129,122,126,0
5276,131,127,125,129,123,130,128,128,0
5279,127,128,128,127,127,129,129,128,0
5282,126,127,128,128,126,128,130,128,0
5285,126,126,128,127,127,128,129,128,0
5289,127,128,125,126,128,128,128,127,0
5292,128,128,129,128,129,129,128,127,0
5295,128,128,129,128,127,127,128,127,0
5298,126,128,129,128,127,127,127,127,0
5301,128,128,127,128,126,128,127,127,0
5306,128,129,128,127,129,129,127,128,0
5309,127,129,128,125,127,128,123,126,0
5314,130,127,127,130,132,129,122,126,0
5318,129,127,128,129,129,126,129,128,0
5322,130,127,129,125,128,130,127,128,0
5325,129,128,128,128,130,128,129,129,0
5328,126,128,129,125,128,129,130,128,0
5331,128,128,130,126,127,128,127,128,0
5334,127,128,128,126,128,129,127,128,0
5337,128,129,129,129,128,128,128,128,0
5341,126,127,126,131,131,129,124,126,0
5344,129,127,127,130,123,131,132,128,0
5346,127,127,126,129,129,132,130,128,0
5350,127,128,128,125,127,126,130,127,0
5354,126,125,127,127,126,125,128,128,0
5357,126,126,129,128,128,127,128,128,0
5361,127,129,126,123,127,126,126,128,0
5365,128,128,126,123,126,127,129,128,0
5368,127,128,128,128,126,126,125,127,0
5371,129,127,127,129,126,127,125,127,0
5377,128,127,129,129,128,127,128,128,0
5381,127,129,128,127,127,127,129,128,0
5384,127,128,129,126,126,127,130,128,0
5388,127,126,129,126,125,129,127,127,0
5391,127,127,127,127,128,128,128,128,0
5394,127,128,128,128,128,128,128,128,0
5398,128,126,126,133,130,128,124,125,0
5402,130,127,126,132,128,128,125,127,0
5405,128,129,128,127,126,127,128,126,0
5408,128,129,129,129,127,127,129,128,0
5411,126,128,128,128,127,125,129,128,0
5416,126,128,127,126,128,127,128,128,0
5420,128,128,127,129,127,129,127,128,0
5424,128,128,126,126,127,127,128,127,0
5430,127,127,126,125,129,124,129,128,0
5434,126,127,127,126,128,126,128,127,0
5436,127,128,127,129,128,128,127,128,0
5440,128,128,128,129,125,127,128,128,0
5443,126,127,127,127,124,124,121,126,0
5446,129,127,126,132,128,128,122,125,0
5449,130,127,127,129,129,128,128,128,0
5452,126,128,129,129,128,128,129,128,0
5455,126,128,129,129,126,127,128,128,0
5458,127,127,128,127,129,127,128,128,0
5461,128,128,129,128,128,129,128,127,0
5465,128,128,128,128,127,128,128,127,0
5469,128,128,128,128,122,126,128,128,0
5472,127,126,126,131,130,129,124,126,0
5475,130,127,126,129,125,126,129,127,0
5477,128,127,127,126,127,126,128,128,0
5480,128,128,126,124,126,124,125,127,0
5483,128,128,125,127,128,128,125,127,0
5486,128,127,126,126,129,130,129,128,0
5491,127,128,127,126,131,131,130,128,0
5494,127,128,127,123,128,128,131,128,0
5497,127,128,127,126,129,127,129,128,0
5502,127,129,129,125,127,128,128,127,0
5505,128,128,130,125,128,128,128,127,0
5508,127,129,128,123,128,128,129,128,0
5512,126,127,128,125,128,127,128,129,0
5515,126,127,127,127,127,129,127,128,0
5518,128,128,128,129,127,128,127,127,0
5523,128,128,128,129,124,123,127,128,0
5528,128,127,130,133,127,128,122,126,0
5532,130,127,127,132,127,126,127,127,0
5538,127,128,127,127,128,127,128,127,0
5543,127,128,129,127,128,127,128,127,0
5546,129,128,129,127,127,126,129,128,0
5548,126,127,127,130,127,127,128,128,0
5551,128,128,127,129,127,128,127,128,0
5555,127,128,126,127,127,128,127,128,0
5558,126,126,127,126,126,127,128,126,0
5561,131,127,126,130,129,131,124,126,0
5564,130,125,130,127,128,129,130,127,0
5569,128,128,129,129,129,127,129,128,0
5572,126,127,129,129,131,124,128,128,0
5579,128,129,127,128,128,130,128,128,0
5576,127,126,127,126,128,128,128,127,0
5582,127,129,127,127,127,128,128,128,0
5586,127,127,126,130,130,130,123,125,0
5589,131,128,127,131,130,129,125,127,0
5593,127,129,127,129,128,129,130,128,0
5596,127,129,128,126,127,130,131,129,0
5599,126,126,128,128,124,125,131,128,0
5603,126,126,129,124,127,129,130,129,0
5607,127,128,129,128,128,128,131,128,0
5610,127,129,129,129,130,127,131,128,0
5613,127,126,127,130,129,127,124,126,0
5617,129,128,128,130,130,129,125,127,0
5620,131,128,126,127,130,130,131,129,0
5623,126,129,127,125,130,128,129,129,0
5627,126,129,126,125,127,125,131,128,0
5630,127,128,126,125,129,128,127,129,0
5633,125,127,126,126,129,131,128,128,0
5638,128,129,126,127,129,130,130,128,0
5643,126,127,126,129,133,132,123,127,0
5645,131,128,127,129,131,131,125,127,0
5648,128,128,126,130,131,131,126,129,0
5653,125,129,125,127,131,129,129,129,0
5656,126,128,126,127,127,128,129,128,0
5662,127,128,126,126,128,130,126,127,0
5665,129,129,124,129,132,131,126,127,0
5669,129,129,123,129,132,132,128,128,0
5673,129,130,122,128,135,135,128,128,0
5681,128,129,124,128,134,135,129,128,0
5684,128,129,125,128,132,134,128,128,0
5688,128,129,123,126,129,132,129,130,0
5692,127,130,124,124,129,133,127,127,0
5695,130,128,126,123,130,133,127,127,0
5699,130,128,127,122,132,132,131,128,0
5703,127,129,126,126,132,131,131,128,0
5706,126,129,126,125,131,128,130,128,0
5709,126,128,126,125,130,130,131,128,0
5712,127,127,127,127,126,129,130,128,0
5716,128,127,128,127,127,129,130,128,0
5719,127,127,128,127,127,126,129,128,0
5722,126,127,128,127,128,129,130,128,0
5725,126,128,127,128,128,129,130,128,0
5728,127,129,129,129,130,128,128,128,0
5730,127,129,127,128,127,126,127,127,0
5733,127,127,128,128,125,125,128,126,0
5737,126,128,127,128,132,126,128,128,0
5739,126,128,127,127,131,129,129,128,0
5742,126,129,128,126,124,127,127,128,0
5745,127,127,128,128,128,128,127,128,0
5749,126,128,127,128,129,129,127,128,0
5753,128,130,128,127,129,130,127,127,0
5757,127,128,127,126,129,127,128,127,0
5760,128,126,126,128,131,130,123,126,0
5763,130,126,126,128,120,129,128,127,0
5766,127,127,127,127,127,129,128,127,0
5769,126,127,127,127,129,128,129,127,0
5773,127,125,127,127,128,127,128,128,0
5776,127,125,127,126,128,127,126,127,0
5779,127,126,126,127,128,129,128,127,0
5782,127,126,126,126,126,126,126,126,0
5786,126,125,129,128,127,125,129,127,0
5790,126,126,127,128,126,128,128,127,0
5794,127,127,127,127,124,128,128,127,0
5798,128,127,126,127,126,126,130,128,0
5802,127,127,129,127,123,125,129,126,0
5805,127,127,129,128,124,127,128,127,0
5811,127,127,130,128,124,125,128,127,0
5814,127,127,130,129,123,123,127,126,0
5818,128,127,131,129,119,123,128,127,0
5821,128,127,130,129,122,124,127,126,0
5824,129,127,130,130,124,125,127,128,0
5827,128,127,130,129,123,124,127,127,0
5830,128,127,132,129,123,124,128,125,0
5834,127,126,132,131,126,125,128,127,0
5838,129,125,131,130,126,126,129,127,0
5841,128,128,134,130,125,124,126,125,0
5845,128,125,132,131,124,121,126,128,0
5847,127,126,133,130,126,123,126,128,0
5850,128,128,130,130,127,126,127,128,0
5853,129,127,132,132,122,122,126,127,0
5858,128,126,130,128,123,124,126,127,0
5864,129,126,130,127,123,123,124,127,0
5868,129,127,129,128,123,125,124,127,0
5871,128,127,127,128,125,123,124,127,0
5876,128,126,128,127,124,122,125,126,0
5878,128,127,127,127,125,125,125,127,0
5883,127,127,127,128,126,126,126,126,0
5885,128,128,126,128,126,126,126,126,0
5889,127,127,125,127,126,125,127,127,0
5892,127,126,126,127,126,125,128,127,0
5895,127,126,125,126,123,127,127,128,0
5898,128,127,127,127,125,126,127,127,0
5901,128,126,127,126,122,122,127,126,0
5904,127,125,127,127,125,126,129,127,0
5906,127,125,126,126,124,127,129,127,0
5910,127,126,126,127,124,126,128,127,0
5913,128,128,127,127,126,125,129,128,0
5916,127,127,127,126,125,125,129,128,0
5921,127,125,127,126,126,127,128,128,0
5925,129,129,127,125,122,127,127,128,0
5928,128,128,128,127,125,126,123,127,0
5931,130,126,126,129,131,127,124,126,0
5935,130,128,126,128,132,129,125,127,0
5938,128,131,128,126,132,128,131,128,0
5941,126,130,128,126,131,127,131,128,0
5946,127,129,128,126,128,127,130,128,0
5949,128,128,129,127,129,129,131,128,0
5951,126,128,128,126,128,130,129,128,0
5955,127,128,127,127,127,129,126,128,0
5958,127,127,129,126,125,128,127,127,0
5961,127,127,129,127,125,132,123,127,0
5966,130,126,127,131,130,131,123,127,0
5972,130,129,126,129,131,132,124,127,0
5975,130,129,127,128,130,130,124,129,0
5978,128,127,128,125,131,130,129,129,0
5981,126,129,128,126,130,129,129,129,0
5984,127,129,128,125,130,128,129,129,0
5987,127,128,128,126,129,127,129,129,0
5990,126,128,126,127,128,128,130,128,0
5993,126,129,126,129,128,129,129,129,0
5995,126,129,128,127,127,127,130,127,0
5998,127,128,128,127,123,127,123,127,0
6001,131,129,125,129,131,131,124,127,0
6004,128,127,127,126,129,129,129,128,0
6007,127,128,127,127,129,129,130,128,0
6010,129,125,125,130,130,128,125,126,0
6013,130,128,126,130,131,131,125,127,0
6016,130,128,126,125,128,132,132,129,0
6019,127,129,127,127,127,128,130,128,0
6022,126,128,127,128,124,127,130,127,0
6025,126,127,126,127,128,129,130,129,0
6028,126,128,126,128,126,129,129,128,0
6031,127,128,126,126,129,128,129,128,0
6035,125,127,127,130,131,129,123,127,0
6038,129,127,125,130,133,130,124,127,0
6042,129,128,127,130,129,125,129,129,0
6045,127,129,128,126,127,127,130,128,0
6048,127,128,127,126,127,127,130,128,0
6052,125,128,128,126,130,127,126,127,0
6057,126,129,127,128,128,129,128,128,0
6060,126,127,126,130,124,124,128,127,0
6064,127,128,129,129,129,130,122,126,0
6069,130,128,127,130,132,130,123,127,0
6073,130,128,126,127,127,130,128,129,0
6076,127,127,127,126,130,127,128,127,0
6079,125,126,127,126,127,124,128,129,0
6082,126,127,127,126,128,126,127,129,0
6085,126,127,128,125,127,128,127,129,0
6088,128,128,129,123,127,129,126,129,0
6094,127,128,130,123,123,123,129,128,0
6097,128,125,129,126,122,124,124,128,0
6100,128,128,128,128,130,127,127,128,0
6105,128,129,129,129,130,128,128,128,0
6108,127,127,130,126,125,124,127,127,0
6111,126,128,131,127,121,125,123,127,0
6114,129,128,127,131,131,130,124,129,0
6117,127,129,129,129,131,127,128,128,0
6120,127,128,130,128,129,128,129,128,0
6123,126,127,129,126,124,126,130,128,0
6126,128,127,128,126,123,128,127,127,0
6130,129,128,130,128,128,128,127,127,0
6133,127,127,129,130,128,127,128,128,0
6135,128,127,125,131,129,130,122,127,0
6138,130,127,126,130,122,128,127,128,0
6141,127,127,126,127,127,127,129,128,0
6144,128,127,128,125,125,124,127,127,0
6149,128,125,130,125,125,124,127,127,0
6152,127,126,127,126,127,128,128,128,0
6156,128,127,127,127,128,128,128,128,0
6159,126,127,127,129,126,124,127,127,0
6162,128,126,128,127,126,123,129,128,0
6166,126,126,127,129,125,126,127,127,0
6171,128,127,126,130,127,126,128,127,0
6176,128,128,127,129,125,125,128,127,0
6182,127,127,127,128,125,126,127,128,0
6185,128,126,127,127,126,127,128,127,0
6188,127,127,127,128,124,126,129,127,0
6191,128,127,127,128,125,126,129,127,0
6195,128,127,127,127,125,123,127,126,0
6198,127,126,127,127,126,127,126,127,0
6200,128,126,127,126,125,127,127,127,0
6203,128,126,128,126,125,125,127,128,0
6206,128,124,127,125,120,121,127,129,0
6209,127,127,127,126,123,124,127,128,0
6212,128,128,126,126,127,127,128,128,0
6216,127,128,126,124,125,126,127,126,0
6219,128,126,128,125,123,125,127,127,0
6222,128,126,126,128,129,128,124,127,0
6225,128,125,127,127,129,129,129,128,0
6229,127,128,127,127,127,128,128,128,0
6232,127,126,129,126,126,125,128,127,0
6235,128,126,128,127,127,126,128,128,0
6238,128,128,127,128,127,128,127,127,0
6242,129,128,129,129,126,128,126,127,0
6245,129,128,127,130,127,127,126,127,0
6248,129,128,126,129,129,128,126,127,0
6251,127,127,129,126,127,129,129,127,0
6256,129,128,128,126,128,128,129,127,0
6259,128,127,128,126,122,125,129,127,0
6263,127,126,128,126,127,128,128,127,0
6268,129,129,128,126,127,128,128,127,0
6270,129,128,129,128,127,127,128,127,0
6273,128,127,129,127,125,126,126,126,0
6278,130,127,128,131,130,130,125,126,0
6284,132,127,128,129,127,128,129,128,0
6289,128,128,129,127,127,128,129,128,0
6293,127,126,130,127,126,126,129,128,0
6295,126,127,129,128,127,126,129,128,0
6299,127,128,128,128,127,125,128,128,0
6301,129,128,128,128,127,128,128,128,0
6305,127,127,128,127,125,122,125,126,0
6309,129,127,127,131,130,129,124,127,0
6313,130,127,126,130,130,125,129,128,0
6316,128,127,129,126,128,129,128,128,0
6320,127,127,129,126,127,126,129,128,0
6323,127,128,128,127,129,128,129,127,0
6326,127,128,128,127,128,129,128,127,0
6330,128,128,128,127,128,128,128,128,0
6333,125,128,126,126,125,126,125,127,0
6336,129,126,125,128,130,129,123,127,0
6340,130,126,125,130,130,130,125,128,0
6343,126,128,126,126,132,129,129,129,0
6349,127,129,125,126,130,127,129,129,0
6352,126,128,126,127,130,127,130,128,0
6356,126,128,126,129,130,128,126,127,0
6363,126,130,127,127,131,130,131,128,0
6366,127,129,127,128,129,129,129,128,0
6370,127,125,126,129,131,130,124,127,0
6374,130,127,125,131,130,130,125,129,0
6377,127,129,127,129,129,129,129,129,0
6381,127,129,127,127,129,128,129,129,0
6384,126,129,127,127,129,129,129,129,0
6387,127,128,127,127,129,128,128,128,0
6393,127,128,126,128,129,128,129,128,0
6400,127,129,127,128,127,128,127,128,0
6406,126,126,127,129,130,129,124,126,0
6409,128,127,127,129,129,129,123,126,0
6413,128,129,128,127,129,129,128,129,0
6416,128,129,127,128,128,127,127,128,0
6420,126,128,127,127,129,127,128,128,0
6423,126,128,128,127,129,128,129,128,0
6427,127,128,128,128,128,128,128,128,0
6430,127,128,128,127,127,127,127,129,0
6433,127,127,128,132,130,128,124,126,0
6437,129,127,128,131,129,129,123,126,0
6440,130,127,128,128,131,130,128,128,0
6444,126,128,128,127,128,128,128,128,0
6447,127,128,129,127,124,128,128,129,0
6450,126,127,127,125,128,130,128,128,0
6453,128,128,128,127,127,129,128,128,0
6455,128,129,128,127,128,129,127,128,0
6458,128,127,129,127,127,127,123,126,0
6461,130,127,126,129,129,130,122,126,0
6464,131,127,127,127,130,130,127,128,0
6467,128,128,128,127,127,129,128,128,0
6470,127,128,127,126,125,128,129,128,0
6473,127,127,128,125,128,128,128,128,0
6476,128,128,128,127,126,127,129,128,0
6479,127,128,128,127,126,127,129,128,0
6482,126,127,128,131,127,127,124,126,0
6486,130,126,127,130,128,127,125,126,0
6489,127,127,128,125,128,128,129,128,0
6493,128,129,128,125,128,128,129,128,0
6497,127,128,127,127,128,125,128,128,0
6504,125,127,128,126,127,128,129,128,0
6508,126,128,127,126,128,130,128,128,0
6511,127,129,126,129,130,129,129,127,0
6514,127,128,127,129,125,127,128,127,0
6518,126,127,127,132,129,129,124,126,0
6521,130,128,125,129,126,129,128,128,0
6524,128,128,127,128,128,128,128,128,0
6526,128,127,127,128,127,126,128,128,0
6529,127,126,127,126,127,124,130,129,0
6533,127,128,126,127,128,128,128,128,0
6539,127,129,127,128,128,128,127,128,0
6543,127,128,128,126,124,127,128,128,0
6547,127,126,128,130,129,128,123,125,0
6551,130,127,127,131,128,128,127,128,0
6554,128,129,127,126,129,130,129,128,0
6557,127,128,127,127,128,128,130,128,0
6561,126,128,128,127,129,125,130,128,0
6564,126,128,127,125,129,129,129,128,0
6568,128,128,127,126,127,128,129,127,0
6571,128,128,128,127,123,124,127,127,0
6575,127,127,127,128,130,128,124,126,0
6578,129,127,128,130,129,127,129,128,0
6582,127,129,127,126,129,129,129,128,0
6585,128,128,127,127,128,127,127,128,0
6589,127,128,130,127,127,127,127,128,0
6591,127,128,127,126,128,128,128,128,0
6595,128,128,128,128,127,128,127,127,0
6598,127,128,128,126,126,127,128,128,0
6601,125,127,128,126,124,125,127,127,0
6605,124,127,128,128,125,127,128,128,0
6611,128,128,128,128,127,129,128,128,0
6617,127,127,128,128,125,128,125,126,0
6620,130,126,127,131,130,130,124,126,0
6623,130,126,128,131,130,130,124,128,0
6629,127,128,127,128,131,128,129,128,0
6632,126,128,127,125,125,126,128,127,0
6636,127,126,128,128,126,127,130,128,0
6639,127,127,128,126,129,128,129,128,0
6642,128,129,128,126,128,128,128,128,0
6645,127,128,128,127,126,127,129,128,0
6649,126,128,129,125,126,126,123,126,0
6652,130,127,127,130,129,128,123,125,0
6655,128,128,128,127,127,128,129,129,0
6659,127,129,128,125,127,125,127,127,0
6662,127,127,129,126,125,125,127,127,0
6666,127,128,128,128,127,126,129,128,0
6668,127,128,126,126,130,129,128,129,0
6671,128,128,125,127,127,128,129,129,0
6674,126,126,126,126,128,127,129,128,0
6677,126,128,126,130,129,129,123,126,0
6680,129,126,126,129,129,129,128,128,0
6682,127,127,126,128,129,128,129,128,0
6687,127,127,127,127,127,126,128,128,0
6690,127,127,127,129,127,126,129,127,0
6693,126,128,126,127,129,128,128,127,0
6698,127,128,127,127,126,127,128,128,0
6701,128,127,127,127,127,127,128,128,0
6704,128,127,127,130,129,128,122,126,0
6709,130,128,126,129,123,129,127,128,0
6714,128,128,127,128,126,128,128,128,0
6719,127,128,128,128,121,127,129,128,0
6722,127,128,128,129,128,128,129,127,0
6726,128,128,127,128,128,128,128,128,0
6729,128,128,128,128,127,129,128,128,0
6732,127,127,127,129,126,129,123,126,0
6736,129,127,127,129,127,129,125,126,0
6739,128,127,128,124,127,128,130,128,0
6742,128,129,128,125,127,128,129,128,0
6745,128,127,128,125,128,126,129,129,0
6748,127,127,128,127,127,127,129,128,0
6751,127,127,128,125,129,128,127,128,0
6753,127,128,128,128,128,127,128,128,0
6756,127,128,128,126,129,126,129,128,0
6760,125,127,129,127,127,127,128,129,0
6762,127,127,128,127,128,128,128,128,0
6765,127,128,128,127,127,128,128,128,0
6769,127,127,129,127,125,124,127,128,0
6772,126,126,128,130,128,128,123,126,0
6776,130,126,127,130,127,125,129,128,0
6779,127,128,127,126,128,129,128,128,0
6783,128,127,128,125,128,128,128,128,0
6788,127,127,128,126,125,125,129,128,0
6792,127,128,127,129,130,128,127,128,0
6796,128,128,126,128,128,129,127,128,0
6799,128,127,128,128,128,127,127,128,0
6804,127,126,128,130,129,128,123,126,0
6806,129,127,128,130,127,128,129,128,0
6809,127,128,127,128,130,128,130,128,0
6813,126,128,127,128,130,126,129,128,0
6818,126,127,127,125,128,127,128,127,0
6821,128,128,129,128,126,127,128,128,0
6824,127,129,127,129,128,127,128,127,0
6826,126,129,127,129,127,128,129,128,0
6829,127,127,128,128,126,127,128,127,0
6832,127,127,128,129,128,129,128,128,0
6834,128,129,129,128,126,128,128,128,0
6837,128,128,127,127,125,125,128,128,0
6840,127,127,127,126,125,126,124,127,0
6842,129,128,127,130,128,128,124,126,0
6846,130,125,127,126,128,127,128,128,0
6849,128,128,127,127,129,127,129,128,0
6852,127,128,128,127,125,125,129,128,0
6855,127,128,127,126,126,128,128,128,0
6858,128,128,127,128,128,128,128,128,0
6860,128,128,127,127,127,129,128,127,0
6863,127,128,128,127,127,124,128,128,0
6866,128,126,126,129,130,129,123,126,0
6870,131,127,127,129,124,129,128,127,0
6872,128,128,128,125,130,128,128,128,0
6877,128,127,128,126,128,124,128,127,0
6880,127,128,128,127,127,127,128,128,0
6883,127,129,128,128,128,129,128,127,0
6887,127,128,127,128,128,128,128,128,0
6890,127,127,127,126,125,129,124,126,0
6894,128,127,127,130,128,128,124,126,0
6897,129,127,127,127,129,130,129,128,0
6900,127,128,127,126,128,128,128,128,0
6905,126,128,128,125,129,126,130,128,0
6909,126,128,128,127,126,127,128,128,0
6916,127,127,127,128,126,128,129,128,0
6919,127,128,127,128,127,128,130,128,0
6921,126,127,128,126,124,126,130,128,0
6924,127,126,128,132,129,128,124,126,0
6927,131,127,127,128,128,128,128,129,0
6932,129,128,128,128,129,128,128,129,0
6935,128,128,128,127,126,127,128,128,0
6938,127,127,128,124,127,129,128,128,0
6942,127,128,128,126,128,129,127,128,0
6947,128,129,128,127,127,129,127,127,0
6949,128,128,128,125,122,128,123,126,0
6952,128,128,127,130,128,129,123,126,0
6955,130,127,128,126,127,129,129,128,0
6958,126,128,128,127,128,128,129,128,0
6962,127,128,127,125,128,127,128,128,0
6965,127,127,128,125,128,127,128,128,0
6967,127,127,128,126,127,128,128,128,0
6971,127,128,126,127,126,127,128,128,0
6974,128,127,126,127,126,126,129,128,0
6978,126,126,127,126,128,126,127,128,0
6981,128,127,128,128,128,127,128,127,0
6984,129,128,127,129,128,128,128,129,0
6993,128,128,126,127,125,127,129,127,0
6997,126,126,128,128,124,129,123,125,0
6999,130,127,127,132,129,130,124,125,0
7009,126,128,127,129,127,129,129,127,0
7013,128,129,127,127,128,128,129,127,0
7018,127,128,127,127,126,127,127,128,0
7023,128,128,126,130,124,124,129,128,0
7031,128,129,128,129,130,129,128,127,0
7036,128,128,128,127,128,126,129,128,0
7040,126,127,127,128,129,129,123,126,0
7044,129,127,127,129,129,128,126,127,0
7047,127,129,127,127,128,129,127,128,0
7051,129,128,127,128,128,128,129,128,0
7055,128,126,130,128,130,126,129,128,0
7059,126,128,127,126,128,128,129,128,0
7062,128,129,127,129,127,129,129,128,0
7065,128,128,127,128,129,126,129,128,0
7069,126,126,128,127,128,126,130,127,0
7072,127,127,128,127,123,127,127,127,0
7075,128,128,128,128,127,128,129,127,0
7078,128,128,127,128,129,127,127,128,0
7083,127,127,128,127,129,127,124,126,0
7085,130,127,127,132,129,128,123,126,0
7088,130,127,128,125,128,129,129,128,0
7091,127,129,128,128,129,128,128,129,0
7094,127,128,128,125,127,126,128,128,0
7096,129,128,130,126,124,128,128,127,0
7099,128,128,128,129,128,129,127,128,0
7101,127,128,126,128,129,129,129,128,0
7104,126,125,127,132,130,127,123,126,0
7107,130,127,128,130,129,127,124,126,0
7110,124,127,128,128,129,128,129,127,0
7113,128,129,128,127,129,127,129,128,0
7115,127,128,127,124,127,126,129,128,0
7118,127,127,129,125,128,127,129,127,0
7121,127,127,128,127,129,128,128,128,0
7124,127,129,127,127,128,127,128,128,0
7127,127,128,128,125,125,125,128,128,0
7132,127,127,128,124,127,127,128,129,0
7137,128,128,127,127,127,128,127,128,0
7143,127,128,127,127,127,128,127,128,0
7146,127,127,128,126,127,125,122,126,0
7149,130,126,127,130,128,128,124,125,0
7152,129,127,127,126,127,128,128,128,0
7155,128,128,127,128,127,129,129,128,0
7158,127,128,127,126,128,127,129,129,0
7161,126,127,127,129,128,128,129,128,0
7165,126,127,127,128,128,128,128,128,0
7176,127,128,127,127,127,129,129,128,0
7179,127,128,127,127,126,128,129,128,0
7182,127,127,126,129,127,127,124,126,0
7186,131,128,127,129,125,127,129,127,0
7191,127,129,127,127,128,128,129,127,0
7196,127,128,127,125,130,128,130,127,0
7198,126,127,127,128,126,126,126,127,0
7202,127,127,126,129,125,128,129,128,0
7212,127,128,126,127,128,128,129,128,0
7216,126,128,128,127,128,127,129,127,0
7220,127,128,129,126,127,128,129,128,0
7223,125,128,128,127,128,128,128,127,0
7227,128,128,127,126,128,130,129,128,0
7230,128,128,128,127,127,127,129,125,0
7234,128,126,128,129,126,127,125,127,0
7237,128,126,127,129,126,126,129,128,0
7240,127,128,127,127,129,129,128,128,0
7244,127,128,127,126,129,128,129,128,0
7246,127,127,127,126,127,127,129,128,0
7256,127,128,128,127,129,128,129,127,0
7259,127,128,128,129,129,129,129,128,0
7263,128,128,128,128,129,126,129,127,0
7266,127,127,127,130,129,129,123,126,0
7269,131,126,127,131,129,129,126,127,0
7273,127,128,130,129,128,130,129,128,0
7276,127,128,127,126,129,129,128,128,0
7279,128,128,130,127,125,125,128,127,0
7283,126,128,128,126,128,128,128,128,0
7286,127,129,127,128,129,129,128,128,0
7293,127,128,128,127,127,127,128,128,0
7296,127,127,128,127,128,127,128,128,0
7299,126,127,129,130,125,127,123,127,0
7302,129,125,127,128,129,129,128,128,0
7311,127,128,127,128,128,127,127,127,0
7314,128,128,128,128,127,124,128,127,0
7318,128,127,128,128,128,128,127,128,0
7322,127,128,128,129,128,129,127,128,0
7330,128,128,129,127,127,127,128,127,0
7333,128,127,128,126,127,125,123,125,0
7338,131,127,127,130,129,128,123,126,0
7342,130,126,127,128,130,128,129,128,0
7345,128,128,128,126,129,128,129,127,0
7349,128,128,127,125,128,126,129,128,0
7352,127,128,127,124,129,127,129,127,0
7355,129,128,127,127,128,129,128,128,0
7358,128,128,128,127,126,128,128,128,0
7361,128,127,128,128,122,126,128,128,0
7365,126,127,127,132,128,129,124,127,0
7368,130,127,127,128,127,129,128,128,0
7372,127,128,128,129,127,127,129,129,0
7377,127,128,127,128,128,125,129,128,0
7381,126,127,128,126,128,127,127,128,0
7386,127,128,127,127,129,128,128,128,0
7389,127,128,127,129,129,128,128,128,0
7392,127,128,128,129,127,127,124,127,0
7395,129,127,128,131,130,128,124,126,0
7403,130,127,127,128,129,129,129,128,0
7407,127,129,129,128,129,129,129,128,0
7410,126,128,127,125,128,129,129,128,0
7413,129,128,128,124,125,127,129,127,0
7416,126,128,129,126,127,129,127,128,0
7418,127,128,128,127,127,129,128,128,0
7421,127,128,128,126,125,126,127,127,0
7425,126,128,128,127,124,127,127,128,0
7441,126,128,127,128,127,130,128,128,0
7446,127,128,127,128,127,128,128,128,0
7450,127,127,127,128,126,124,129,128,0
7454,127,126,128,127,124,127,124,126,0
7460,129,127,128,131,128,128,124,125,0
7463,127,128,127,128,127,127,129,128,0
7467,127,128,127,125,129,126,128,128,0
7471,126,126,128,131,129,127,123,125,0
7475,130,127,128,129,121,129,129,128,0
7478,127,128,127,125,128,129,128,128,0
7481,127,128,128,126,127,126,128,126,0
7485,126,128,127,126,128,127,129,128,0
7488,127,128,127,128,127,127,127,128,0
7491,128,128,127,128,127,128,128,128,0
7495,128,128,127,128,127,127,128,128,0
7499,127,128,127,127,127,127,129,128,0
7504,127,127,127,127,128,127,128,129,0
7512,127,128,127,129,128,127,127,128,0
7515,128,128,127,127,128,126,126,127,0
7519,129,127,126,130,130,127,125,126,0
7522,130,126,127,129,129,127,127,127,0
7526,127,128,130,125,128,128,129,127,0
7529,128,128,126,125,128,128,129,127,0
7532,127,127,127,125,128,128,129,128,0
7536,127,127,127,127,127,127,127,128,0
7539,128,128,127,127,128,128,127,128,0
7543,127,128,127,126,128,126,127,128,0
7545,127,128,128,127,129,125,128,126,0
7548,129,128,127,130,129,129,123,126,0
7558,130,126,128,125,129,130,129,127,0
7564,127,129,128,127,127,129,128,127,0
7568,126,128,128,125,128,128,128,128,0
7571,127,128,129,127,126,127,128,128,0
7575,128,129,129,127,128,129,128,128,0
7578,128,128,128,128,127,129,129,129,0
7581,127,128,128,127,127,126,128,126,0
7585,130,127,129,132,128,128,123,126,0
7588,129,125,130,129,128,128,128,127,0
7591,127,128,128,127,128,128,129,128,0
7594,127,128,128,126,126,126,128,127,0
7638,127,128,130,126,129,125,129,127,0
7644,129,128,128,127,128,129,127,128,0
7648,128,128,128,127,129,128,129,129,0
7711,127,127,128,126,125,126,128,128,0
7722,127,127,128,128,126,127,129,127,0
7727,127,126,127,129,129,128,128,128,0
7732,128,128,127,129,130,127,127,128,0
7737,126,128,127,130,129,127,123,126,0
7778,130,126,127,129,128,128,124,126,0
7790,131,127,127,125,130,130,131,129,0
7801,128,129,127,127,126,129,128,128,0
7844,127,128,128,125,126,128,129,128,0
7857,126,128,126,124,127,127,128,128,0
7866,127,128,127,127,127,128,128,128,0
7871,128,128,127,126,128,128,128,128,0
7876,126,128,127,125,128,126,127,128,0
7880,129,127,127,130,129,126,124,126,0
7884,130,126,128,127,127,127,129,127,0
7887,128,128,128,128,127,128,128,128,0
7890,127,129,128,127,129,128,131,128,0
7893,126,127,128,128,128,127,129,128,0
7897,127,128,127,128,128,127,129,127,0
7900,127,129,127,129,128,127,128,128,0
7904,127,128,127,128,129,127,128,128,0
7907,126,127,130,130,129,128,123,126,0
7910,130,127,128,130,124,126,127,128,0
7913,126,128,130,127,129,129,129,128,0
7917,127,129,128,128,127,128,128,128,0
7920,127,128,130,127,127,128,129,128,0
7923,127,127,127,128,128,130,127,128,0
7927,128,128,126,127,128,129,128,128,0
7930,127,128,127,128,127,126,128,127,0
7934,127,127,129,130,128,129,124,126,0
7939,130,127,126,129,128,128,126,126,0
7942,128,128,128,127,126,128,129,129,0
7976,128,128,129,127,129,126,129,128,0
7986,127,127,127,126,127,125,128,128,0
7996,127,128,130,127,129,126,128,127,0
8003,128,128,127,129,129,128,127,127,0
8008,128,128,127,127,127,125,128,128,0
8046,126,127,127,127,127,127,123,126,0
8056,130,127,127,130,130,129,126,127,0
8061,127,128,126,126,129,129,129,128,0
8114,126,128,127,128,130,127,129,128,0
8127,127,127,127,127,128,126,129,127,0
8134,127,127,129,128,130,126,127,128,0
8141,128,128,128,127,134,129,128,128,0
8146,127,128,128,128,133,128,129,128,0
8151,127,128,128,127,133,125,126,126,0
8155,129,128,127,130,131,128,123,126,0
8158,129,125,128,128,132,128,127,127,0
8162,129,128,131,127,131,128,127,127,0
8165,128,128,128,127,128,126,127,127,0
8168,130,127,128,127,130,127,128,128,0
8171,128,127,128,128,128,129,127,128,0
8175,127,128,127,128,129,128,128,128,0
8178,126,126,127,128,127,126,126,127,0
8182,126,127,127,132,127,128,122,127,0
8186,130,127,127,127,128,130,128,127,0
8193,128,128,128,128,125,127,128,128,0
8196,127,127,128,127,123,128,128,128,0
8199,127,127,130,126,127,127,127,128,0
8202,127,127,127,129,125,127,126,128,0
8206,128,128,129,127,126,128,127,128,0
8209,127,127,128,126,125,126,128,128,0
8213,127,128,128,126,122,125,122,126,0
8216,130,128,127,130,128,127,127,127,0
8219,128,129,128,127,125,127,129,128,0
8223,126,128,128,126,127,127,130,129,0
8226,126,127,127,127,127,127,131,128,0
8229,128,128,128,129,126,128,128,128,0
8233,127,129,128,130,126,127,128,128,0
8236,127,128,127,129,126,127,129,127,0
8240,131,126,127,132,128,129,124,126,0
8245,130,128,127,130,126,129,129,128,0
8249,127,128,127,128,127,130,129,129,0
8253,127,127,127,128,128,129,129,129,0
8257,126,127,128,127,123,127,129,128,0
8260,127,128,128,129,127,127,128,128,0
8263,127,127,127,128,127,128,127,128,0
8266,127,127,128,127,128,126,129,127,0
8268,126,126,127,127,126,127,128,128,0
8271,127,127,128,127,125,128,128,128,0
8274,128,128,128,127,127,128,128,127,0
8276,127,128,127,127,124,127,126,126,0
8280,129,127,126,129,127,128,124,127,0
8283,131,127,127,128,128,127,129,128,0
8287,127,128,127,123,128,128,129,127,0
8291,127,128,126,123,127,127,130,128,0
8296,127,127,127,125,124,125,130,128,0
8311,126,127,127,126,126,127,128,128,0
8315,128,128,127,126,126,128,128,128,0
8318,128,128,127,126,127,126,128,127,0
8322,126,128,128,124,125,126,128,128,0
8325,127,127,127,126,127,129,128,128,0
8329,128,128,127,128,129,129,128,127,0
8334,127,128,127,126,121,127,123,126,0
8337,128,127,127,128,129,128,124,126,0
8342,129,128,128,128,129,129,127,128,0
8345,127,128,128,125,129,130,130,128,0
8348,127,128,131,124,128,129,130,129,0
8379,127,128,129,125,128,128,131,128,0
8388,127,128,129,126,128,127,128,128,0
8397,126,127,128,127,129,128,128,128,0
8402,127,128,128,128,128,127,129,128,0
8406,128,127,129,126,127,126,128,127,0
8448,128,127,128,128,127,127,129,128,0
8462,128,128,127,130,128,129,127,128,0
8471,128,128,128,129,127,129,127,127,0
8480,127,128,127,128,127,128,123,126,0
8486,131,127,127,131,127,127,123,126,0
8491,129,127,130,126,128,128,129,129,0
8495,127,128,126,129,126,128,128,129,0
8499,127,128,128,127,125,127,129,128,0
8503,127,128,128,126,126,128,127,128,0
8507,127,128,128,129,127,127,127,128,0
8512,128,128,128,128,129,127,127,128,0
8516,127,127,127,127,127,125,125,126,0
8519,129,127,127,132,128,127,125,127,0
8522,128,127,129,128,130,128,128,127,0
8526,128,128,129,127,128,128,129,128,0
8529,127,128,129,126,129,124,128,128,0
8532,129,125,126,129,129,128,126,127,0
8536,129,127,127,125,128,130,129,128,0
8539,128,128,128,126,127,130,129,129,0
8542,126,127,128,125,129,128,130,129,0
8546,126,126,127,126,127,128,129,128,0
8549,126,128,127,127,130,129,128,129,0
8552,127,128,127,127,129,128,128,128,0
8560,128,127,128,127,127,124,129,127,0
8578,129,126,127,131,129,127,124,125,0
8582,130,127,127,131,123,129,131,128,0
8586,128,129,128,128,128,129,129,128,0
8589,127,128,129,128,127,127,130,128,0
8592,127,128,129,126,126,126,129,128,0
8596,127,127,127,128,127,127,128,128,0
8599,127,128,128,127,128,127,127,127,0
8603,126,127,127,127,127,128,128,125,0
8606,128,126,127,129,128,129,123,126,0
8609,130,126,127,127,123,128,128,128,0
8613,128,128,128,126,127,129,128,128,0
8616,128,129,127,126,126,127,127,127,0
8620,129,128,129,128,127,127,128,128,0
8624,127,128,128,129,126,127,127,127,0
8627,128,129,127,129,126,128,127,127,0
8631,127,129,127,128,128,125,126,127,0
8637,126,127,129,129,128,127,122,127,0
8641,129,128,127,131,126,124,129,128,0
8645,127,128,128,128,129,127,129,128,0
8648,128,128,127,126,128,127,130,128,0
8651,127,128,128,127,125,126,129,128,0
8655,127,127,130,128,123,128,127,127,0
8658,128,127,128,128,125,128,127,128,0
8661,127,128,127,128,126,128,128,127,0
8665,126,127,127,128,126,127,128,128,0
8667,128,126,127,129,128,129,128,128,0
8670,127,128,127,129,128,128,127,128,0
8673,128,128,127,129,125,127,127,128,0
8676,127,126,127,132,129,129,123,126,0
8680,130,127,127,131,130,129,123,126,0
8684,129,127,129,128,130,129,129,128,0
8688,127,129,127,127,129,128,129,128,0
8691,126,127,127,127,128,127,130,128,0
8695,126,127,127,127,129,129,128,127,0
8699,127,128,127,127,129,129,129,128,0
8703,127,128,126,127,127,129,130,128,0
8706,126,127,127,126,125,129,123,126,0
8710,130,127,126,130,129,129,123,126,0
8714,128,128,127,126,129,129,128,127,0
8717,127,128,127,127,134,127,129,127,0
8720,127,128,127,125,130,126,129,128,0
8723,126,127,126,127,134,129,128,128,0
8727,126,128,128,128,128,126,128,128,0
8730,127,128,128,127,129,126,127,128,0
8735,127,127,129,127,128,125,127,128,0
8738,127,127,127,127,128,127,122,126,0
8742,130,127,127,128,124,129,127,128,0
8747,128,128,127,127,129,128,128,127,0
8752,126,127,127,127,131,128,129,128,0
8756,126,126,127,126,127,128,129,128,0
8758,127,128,129,126,128,128,128,128,0
8762,127,128,127,126,126,128,128,128,0
8768,127,127,128,126,124,126,123,126,0
8771,129,126,127,129,126,127,123,127,0
8774,130,127,127,127,129,130,130,128,0
8778,127,129,127,126,129,130,129,129,0
8781,127,128,127,125,125,127,128,127,0
8785,127,127,130,126,125,127,128,128,0
8788,127,127,128,129,127,128,128,128,0
8791,127,128,129,128,127,128,128,128,0
8795,128,128,128,129,126,126,125,126,0
8798,129,128,127,131,128,128,124,126,0
8802,129,127,129,127,129,130,129,128,0
8805,127,129,127,129,128,129,129,128,0
8809,127,128,128,127,126,127,128,128,0
8812,127,128,129,128,127,126,129,128,0
8816,127,128,128,127,126,127,128,128,0
8819,128,128,127,127,128,127,129,128,0
8821,127,128,127,127,127,127,130,128,0
8825,126,127,127,127,125,126,130,127,0
8828,126,126,127,127,127,128,128,128,0
8831,128,128,126,128,129,128,127,128,0
8835,128,127,128,128,122,127,127,128,0
8838,129,127,128,131,129,128,124,126,0
8841,129,126,127,131,129,129,125,127,0
8846,129,128,129,127,127,130,128,128,0
8850,128,128,128,127,127,128,128,128,0
8857,127,127,130,127,127,126,129,127,0
8863,126,127,129,128,129,130,129,128,0
8866,127,128,126,128,127,129,129,129,0
8871,126,128,127,127,129,128,129,128,0
8876,127,127,128,127,126,127,128,128,0
8878,126,127,128,128,129,127,128,128,0
8881,126,128,128,128,128,128,127,128,0
8884,128,128,126,128,126,125,126,128,0
8887,128,127,127,130,128,129,123,126,0
8892,129,127,128,130,128,129,123,126,0
8895,128,127,127,125,127,127,127,128,0
8899,128,128,128,126,128,127,128,128,0
8902,127,128,129,124,126,127,130,128,0
8905,127,128,129,125,128,127,129,128,0
8909,128,128,126,128,128,127,127,128,0
8912,128,128,128,127,126,124,128,127,0
8915,127,128,127,130,130,127,124,126,0
8919,129,127,127,130,130,128,124,126,0
8923,127,127,129,128,129,128,130,128,0
8926,127,128,128,126,129,127,129,128,0
8930,127,127,129,124,127,125,130,128,0
8934,127,126,130,125,127,128,129,128,0
8937,127,128,127,125,128,129,128,129,0
8940,126,129,127,127,125,127,129,127,0
8943,127,127,127,126,126,125,128,128,0
8946,126,126,127,127,127,126,128,127,0
8949,128,128,127,128,128,129,127,127,0
8953,128,128,127,128,128,130,129,128,0
8957,127,127,128,131,129,129,124,126,0
8960,130,126,126,131,131,131,125,126,0
8965,129,127,129,126,130,130,130,128,0
8970,127,128,129,128,130,129,129,128,0
8977,127,128,127,126,127,127,127,127,0
8979,125,128,129,127,128,126,128,127,0
8982,128,128,125,129,128,129,127,127,0
8986,127,128,127,128,127,129,128,127,0
8991,126,128,128,130,127,128,124,126,0
8994,130,127,126,130,128,128,125,126,0
8997,128,127,126,127,127,128,131,126,0
9001,127,128,126,126,127,127,129,129,0
9005,126,127,128,126,127,126,129,128,0
9008,126,128,129,128,126,125,128,129,0
9012,125,128,127,128,128,127,128,129,0
9015,126,129,127,129,128,127,127,128,0
9018,125,128,127,128,124,126,126,128,0
9021,125,127,127,129,128,127,127,129,0
9025,127,125,128,130,127,129,124,126,0
9028,127,128,127,127,129,129,127,128,0
9032,127,128,127,127,127,127,128,128,0
9036,126,126,127,130,128,128,123,126,0
9040,131,127,128,129,129,127,130,128,0
9043,128,128,127,126,129,129,128,128,0
9046,128,128,128,125,128,128,129,128,0
9049,127,128,128,125,126,126,128,128,0
9052,125,128,127,128,128,128,128,128,0
9055,127,128,127,128,128,128,128,128,0
9059,127,128,128,127,128,129,129,128,0
9062,125,126,129,128,127,126,128,128,0
9066,125,127,127,128,128,127,127,127,0
9069,128,129,128,128,127,128,127,128,0
9073,126,128,128,129,127,127,127,127,0
9077,129,127,127,131,130,128,123,127,0
9082,131,127,127,130,127,125,128,126,0
9087,129,128,130,126,128,127,128,128,0
9091,126,128,127,126,129,128,129,128,0
9094,125,127,129,125,126,126,129,128,0
9097,126,128,129,126,127,126,129,128,0
9103,127,128,127,128,127,126,129,128,0
9106,127,128,129,128,128,127,128,128,0
9110,128,127,127,129,127,128,124,126,0
9114,131,127,126,130,129,126,126,128,0
9117,128,128,125,128,129,128,128,128,0
9120,127,128,129,128,129,127,128,128,0
9124,126,128,128,125,127,127,129,128,0
9126,130,126,128,125,127,128,128,127,0
9130,129,127,127,127,127,129,127,128,0
9133,128,129,126,127,124,126,127,127,0
9136,129,125,125,130,126,129,125,126,0
9139,130,126,128,131,129,129,126,129,0
9143,126,127,126,129,130,128,130,129,0
9147,127,127,127,129,128,127,130,129,0
9150,126,127,129,126,126,126,127,129,0
9154,128,126,127,127,128,127,126,128,0
9158,128,128,129,127,127,126,126,127,0
9165,129,128,127,126,126,127,128,128,0
9168,129,127,126,128,127,126,125,126,0
9173,129,128,126,128,126,126,124,127,0
9177,125,129,126,125,128,128,128,128,0
9180,127,128,128,127,128,128,128,127,0
9184,127,127,129,126,128,127,128,128,0
9187,128,128,127,127,127,129,128,128,0
9191,128,128,128,128,128,128,129,127,0
9196,127,128,127,129,128,128,128,128,0
9203,127,128,127,127,125,125,124,126,0
9207,130,127,127,129,128,129,124,126,0
9210,128,127,127,126,128,129,129,128,0
9214,128,128,127,127,128,129,130,128,0
9217,127,127,127,126,128,126,130,127,0
9220,126,127,130,126,128,126,129,127,0
9224,128,127,128,129,127,128,128,128,0
9227,128,128,128,128,128,127,128,127,0
9229,127,128,128,127,126,124,127,128,0
9232,127,126,128,127,126,126,128,127,0
9236,127,128,127,128,127,128,127,128,0
9240,128,128,127,129,127,128,128,128,0
9243,128,127,128,129,128,126,127,127,0
9246,128,126,128,131,129,128,124,125,0
9250,131,126,127,131,127,126,129,128,0
9253,128,127,128,128,130,129,130,128,0
9256,127,127,129,126,126,126,129,127,0
9259,127,127,129,127,127,128,129,128,0
9262,127,128,129,127,127,127,128,127,0
9265,128,128,129,128,126,128,127,127,0
9269,128,127,127,127,124,126,127,126,0
9273,129,126,126,130,127,128,124,126,0
9276,130,127,126,127,125,127,128,127,0
9279,127,127,127,128,127,129,129,128,0
9283,126,128,127,127,127,128,127,128,0
9286,127,127,127,127,125,126,128,128,0
9289,127,127,127,128,128,127,127,128,0
9293,127,129,127,129,126,127,126,128,0
9297,126,127,127,127,127,127,126,128,0
9302,127,125,126,126,126,126,127,128,0
9306,128,128,127,126,128,128,128,127,0
9311,127,128,127,127,128,128,127,127,0
9317,129,128,127,126,126,126,123,126,0
9321,130,127,126,129,128,128,124,126,0
9324,131,127,127,130,129,127,128,126,0
9328,129,128,128,127,128,128,128,127,0
9331,127,129,128,126,129,128,130,128,0
9335,126,127,126,127,129,127,129,129,0
9338,125,127,127,125,128,128,128,127,0
9341,128,128,127,127,128,128,128,128,0
9345,127,128,128,127,127,128,128,128,0
9348,126,126,130,130,128,128,124,126,0
9351,130,128,127,129,129,129,124,126,0
9354,127,128,128,127,128,129,130,128,0
9357,126,128,127,127,127,128,130,128,0
9359,126,128,128,126,126,127,129,128,0
9362,124,128,128,126,128,129,129,128,0
9366,127,129,127,129,129,129,128,128,0
9369,127,129,128,129,129,128,128,129,0
9373,126,127,128,129,128,129,123,126,0
9376,129,127,128,132,128,129,122,127,0
9379,125,128,127,127,128,131,128,129,0
9382,126,128,127,128,130,130,129,129,0
9386,127,128,129,126,127,127,131,125,0
9388,128,126,127,128,127,127,126,127,0
9394,129,127,127,128,130,129,129,128,0
9397,128,128,128,127,129,129,130,128,0
9400,127,128,129,125,128,127,130,128,0
9403,126,127,127,126,126,128,128,128,0
9406,128,128,126,128,128,129,128,128,0
9409,128,128,127,127,128,129,129,128,0
9414,128,127,128,127,123,127,128,127,0
9418,131,126,127,130,129,129,124,126,0
9422,132,127,128,130,125,131,131,129,0
9426,128,128,128,128,128,128,128,128,0
9429,128,128,127,127,126,129,131,129,0
9432,124,126,129,127,129,130,131,128,0
9436,128,127,129,127,130,129,129,128,0
9439,129,127,127,125,130,128,129,128,0
9443,128,127,127,128,125,126,124,126,0
9446,131,126,127,132,130,127,124,126,0
9449,130,127,128,130,124,130,130,126,0
9452,128,129,127,128,129,128,128,128,0
9455,127,128,126,127,129,129,131,126,0
9458,127,126,127,127,127,122,129,128,0
9462,125,129,126,126,126,127,128,127,0
9466,129,129,128,128,126,127,130,129,0
9469,127,129,128,128,127,127,128,128,0
9473,126,128,127,126,127,124,127,128,0
9477,128,127,127,127,125,126,127,128,0
9480,127,128,127,125,130,129,129,129,0
9483,128,129,127,127,127,128,123,126,0
9488,130,127,128,130,132,130,123,126,0
9491,130,128,129,130,127,126,127,129,0
9495,128,127,129,127,126,129,128,128,0
9499,128,127,128,128,129,129,129,128,0
9503,127,128,127,128,124,129,129,128,0
9506,126,128,127,129,127,131,129,130,0
9509,128,128,130,129,127,128,127,128,0
9512,127,129,130,128,128,129,128,129,0
9516,127,127,129,127,127,126,123,126,0
9520,130,127,127,130,128,125,125,128,0
9527,127,129,129,127,128,127,128,128,0
9531,127,129,129,127,130,127,130,127,0
9535,127,128,127,126,127,127,128,127,0
9538,126,126,129,126,129,127,128,126,0
9541,130,128,127,127,123,126,129,127,0
9546,127,129,129,125,125,124,125,128,0
9549,127,126,129,130,130,127,123,126,0
9553,130,127,126,130,130,128,123,126,0
9556,125,129,129,128,130,130,127,128,0
9560,126,127,129,127,128,127,128,128,0
9563,126,128,127,127,126,127,129,128,0
9566,125,126,128,126,129,129,129,128,0
9568,128,128,126,126,125,128,126,128,0
9571,127,128,127,127,125,127,127,127,0
9575,125,126,128,128,125,124,127,127,0
9578,126,126,128,129,126,124,127,127,0
9582,127,128,126,129,128,128,127,127,0
9586,128,129,127,128,126,128,127,127,0
9589,126,127,127,126,123,128,122,126,0
9593,129,127,126,130,128,129,123,126,0
9597,129,128,127,127,127,128,129,128,0
9601,128,127,130,127,126,127,128,127,0
9604,125,127,128,126,130,127,130,128,0
9607,127,128,130,126,126,127,127,128,0
9609,128,129,128,128,129,128,127,128,0
9612,128,129,127,126,128,127,129,128,0
9615,127,128,127,127,127,125,129,128,0
9618,127,128,128,127,126,124,127,128,0
9621,127,128,127,127,127,127,127,128,0
9624,127,128,127,127,127,127,126,127,0
9629,127,127,128,127,125,126,127,127,0
9635,127,127,127,127,124,125,127,128,0
9638,128,128,127,128,128,128,126,128,0
9641,128,128,128,127,126,126,126,128,0
9644,128,127,128,130,128,129,123,126,0
9647,129,127,127,129,129,129,124,125,0
9651,131,127,127,128,126,128,129,127,0
9654,128,128,129,126,128,128,129,128,0
9657,127,128,127,126,128,126,129,127,0
9660,126,128,129,126,127,127,129,128,0
9664,128,128,128,128,126,128,128,128,0
9667,128,128,128,129,126,128,128,128,0
9670,127,128,128,128,127,126,129,128,0
9673,127,127,127,129,127,125,130,128,0
9677,126,128,127,129,128,127,128,128,0
9680,128,128,127,129,128,128,128,127,0
9683,127,127,128,128,128,127,129,127,0
9686,129,127,128,131,129,128,124,126,0
9689,130,127,127,131,128,125,129,129,0
9692,127,128,129,127,127,128,129,128,0
9695,128,128,128,127,128,128,130,128,0
9698,127,127,127,127,128,128,129,128,0
9700,127,126,128,126,129,128,129,128,0
9704,127,128,127,128,128,128,127,128,0
9707,127,128,127,126,127,127,127,128,0
9710,126,127,127,126,126,125,129,127,0
9717,127,128,127,127,126,127,127,128,0
9720,128,128,128,127,127,126,127,128,0
9723,128,128,126,127,122,127,128,128,0
9725,130,127,127,130,128,128,123,126,0
9729,130,127,127,130,130,129,124,125,0
9734,128,128,128,125,128,128,128,128,0
9740,126,127,128,126,128,127,127,128,0
9744,127,127,127,127,129,127,129,128,0
9747,127,127,127,127,127,128,128,128,0
9751,128,127,128,128,128,129,127,128,0
9754,127,127,128,127,128,128,127,128,0
9757,125,124,126,130,127,128,123,126,0
9761,130,127,128,130,127,127,126,128,0
9764,127,127,127,129,128,128,128,128,0
9769,129,128,128,129,127,127,128,128,0
9772,127,128,127,128,127,125,129,128,0
9776,127,127,128,128,127,126,127,127,0
9779,128,128,128,129,127,128,128,128,0
9783,127,128,127,128,129,128,128,127,0
9786,128,127,128,127,125,126,128,128,0
9789,126,127,127,127,125,127,128,128,0
9792,128,128,127,128,130,127,127,129,0
9797,127,128,127,128,130,128,128,128,0
9800,128,128,127,129,128,127,124,126,0
9803,129,127,127,128,130,128,124,126,0
9806,128,125,131,126,129,130,128,127,0
9808,128,128,128,125,128,128,128,127,0
9811,127,127,129,125,127,127,128,127,0
9815,127,127,128,127,128,127,128,127,0
9818,127,128,128,128,126,128,128,129,0
9822,127,127,128,129,126,128,128,128,0
9825,127,128,129,128,123,127,129,128,0
9828,127,127,126,130,128,130,123,126,0
9832,129,127,128,129,122,130,129,129,0
9836,127,128,126,128,127,128,128,128,0
9840,128,128,127,126,126,127,128,127,0
9844,127,128,127,127,125,126,128,128,0
9849,128,128,128,129,128,128,126,128,0
9853,127,127,127,128,127,127,127,128,0
9855,127,128,127,128,129,125,122,126,0
9858,130,127,127,132,129,129,124,126,0
9862,130,129,127,126,128,129,128,128,0
9865,127,128,127,125,127,128,129,127,0
9868,128,128,128,126,127,128,129,128,0
9872,126,126,128,124,131,126,131,128,0
9875,127,127,127,126,127,128,129,128,0
9879,128,127,128,126,126,128,128,128,0
9882,128,128,127,126,125,125,129,127,0
9886,130,126,128,130,127,127,125,127,0
9889,131,127,127,128,127,127,129,128,0
9897,127,129,126,125,129,126,132,127,0
9894,127,129,129,125,129,128,131,128,0
9900,126,126,129,124,128,126,130,128,0
9903,127,128,127,126,129,129,129,128,0
9907,127,128,127,127,128,129,128,128,0
9910,127,127,127,128,127,128,128,127,0
9913,124,127,127,126,126,129,128,129,0
9916,127,126,127,130,128,130,123,127,0
9919,129,125,128,127,128,129,129,128,0
9922,127,128,129,126,129,129,129,128,0
9926,127,128,127,128,130,129,123,126,0
9930,130,127,127,129,129,127,127,128,0
9934,127,127,128,125,129,128,128,128,0
9937,127,128,127,127,131,128,129,128,0
9940,126,127,128,127,130,128,130,129,0
9945,126,128,127,126,129,128,128,128,0
9949,127,128,126,129,129,129,127,128,0
9953,126,128,128,127,129,128,127,129,0
9956,126,128,127,128,122,127,122,126,0
9959,131,127,127,131,130,129,124,127,0
9963,128,128,128,126,128,129,129,128,0
9965,127,127,130,127,126,126,129,126,0
9968,128,126,127,128,121,126,130,128,0
9971,128,127,127,129,127,127,126,127,0
9973,128,127,128,128,128,128,129,127,0
9977,130,128,128,128,131,128,130,128,0
9980,126,127,128,128,129,127,131,128,0
9982,126,128,127,127,130,127,131,128,0
9985,127,128,127,125,126,128,129,127,0
9988,128,128,126,126,128,129,130,128,0
9991,127,128,126,130,129,128,122,126,0
9995,129,128,126,130,130,129,123,127,0
9999,123,128,127,126,130,132,127,129,0
10002,126,129,126,128,130,130,129,126,0
10005,127,129,127,127,125,125,124,127,0
10008,129,127,127,129,127,127,124,127,0
10011,127,128,126,128,131,131,130,127,0
10015,126,129,126,126,129,131,128,129,0
10018,127,126,125,126,129,125,130,126,0
10022,127,128,127,127,128,123,128,129,0
10025,128,126,126,126,130,130,129,128,0
10028,128,127,129,129,130,130,127,128,0
10031,129,128,129,128,123,125,124,127,0
10035,129,126,127,130,130,128,122,127,0
10038,130,127,127,127,129,130,128,128,0
10041,128,129,128,126,128,130,131,128,0
10045,126,128,129,126,126,126,128,128,0
10050,127,128,128,124,123,125,126,128,0
10055,127,128,129,127,127,124,127,127,0
10059,128,128,130,125,124,127,128,128,0
10062,127,128,128,126,123,125,129,127,0
10065,130,127,128,130,130,129,124,126,0
10071,131,127,129,129,123,129,129,128,0
10074,127,127,128,127,129,129,129,129,0
10077,127,129,127,127,129,126,129,129,0
10081,127,128,129,127,127,126,129,128,0
10085,128,129,128,127,129,128,127,128,0
10088,130,129,128,129,129,127,127,128,0
10092,128,128,128,126,124,124,129,128,0
10096,126,127,128,131,129,127,123,126,0
10099,131,127,127,128,125,126,128,127,0
10102,128,128,127,127,127,130,126,128,0
10105,128,128,128,127,128,127,128,128,0
10109,127,127,129,127,128,126,129,126,0
10112,127,125,127,127,125,128,127,127,0
10115,128,127,128,127,127,127,128,127,0
10118,125,126,129,128,126,124,128,128,0
10122,126,127,129,125,127,127,129,128,0
10125,130,127,128,125,126,128,127,128,0
10128,128,128,127,127,125,127,128,127,0
10131,128,128,128,128,126,125,127,127,0
10134,128,127,128,128,126,126,127,128,0
10137,128,128,130,131,121,124,127,128,0
10141,128,128,126,129,126,127,127,127,0
10144,129,128,127,128,126,128,126,127,0
10147,128,127,127,129,125,126,126,127,0
10150,127,126,128,128,127,127,127,128,0
10153,126,128,127,130,126,128,127,127,0
10157,127,127,127,129,127,127,124,127,0
10162,127,127,128,127,123,122,122,126,0
10166,130,127,126,129,129,129,123,126,0
10168,129,126,127,128,129,128,128,126,0
10172,128,128,127,127,129,127,128,128,0
10175,126,128,127,126,128,126,128,127,0
10179,127,127,127,127,128,126,128,128,0
10181,128,129,127,127,128,127,127,127,0
10185,128,127,127,127,128,128,128,128,0
10188,126,128,128,126,126,125,126,128,0
10191,126,127,126,127,126,128,127,129,0
10194,128,128,128,128,129,129,127,128,0
10197,129,129,127,127,129,127,128,128,0
10200,128,126,127,130,130,129,124,127,0
10203,129,127,125,130,129,129,125,126,0
10206,128,126,126,126,128,129,129,128,0
10209,128,128,126,127,128,128,128,128,0
10212,127,127,127,127,128,128,129,128,0
10228,127,127,128,126,126,128,129,128,0
10232,128,128,127,127,127,127,128,128,0
10235,128,129,127,128,128,129,129,128,0
10239,127,127,127,127,127,127,128,128,0
10242,127,127,127,127,126,125,128,128,0
10246,126,128,127,128,128,127,128,127,0
10249,128,129,128,128,129,128,129,128,0
10253,127,127,128,127,127,125,129,126,0
10256,130,126,126,130,129,127,124,126,0
10259,131,127,127,131,128,126,130,128,0
10262,126,128,126,127,128,128,128,128,0
10266,127,127,127,128,128,128,128,127,0
10269,127,128,128,128,129,128,129,128,0
10274,126,127,127,127,128,129,128,128,0
10278,127,128,127,128,128,129,127,128,0
10282,127,127,128,126,126,125,126,127,0
10285,130,126,126,129,129,129,124,126,0
10288,129,128,127,129,125,126,128,128,0
10291,128,128,127,125,128,128,128,129,0
10295,127,128,128,124,128,126,128,128,0
10298,127,127,128,125,125,126,125,126,0
10302,129,125,127,126,127,128,127,127,0
10308,128,128,126,128,127,128,127,128,0
10310,127,128,127,127,129,128,126,128,0
10314,127,128,127,126,129,124,125,127,0
10317,130,127,127,130,130,129,124,127,0
10320,127,128,127,129,129,130,130,129,0
10323,127,127,128,127,128,129,130,129,0
10326,127,128,128,127,123,128,127,128,0
10329,127,127,128,127,126,129,128,128,0
10333,127,129,128,127,126,128,128,128,0
10336,128,127,129,126,127,127,127,127,0
10339,127,126,129,125,126,127,128,126,0
10342,129,127,128,129,130,129,124,126,0
10347,130,126,129,125,129,129,129,128,0
10350,128,128,127,126,130,128,129,128,0
10353,128,128,130,125,125,126,130,127,0
10359,128,128,127,127,129,128,127,128,0
10361,127,128,126,129,128,127,128,128,0
10365,128,128,128,128,128,127,128,128,0
10369,128,128,129,127,125,126,128,127,0
10374,129,128,127,131,129,128,124,125,0
10382,130,127,126,127,128,129,129,128,0
10387,127,128,126,125,129,126,129,128,0
10391,126,127,126,124,129,126,128,128,0
10396,126,127,128,126,123,127,128,128,0
10400,128,128,128,128,128,128,128,128,0
10403,127,129,128,128,127,127,129,127,0
10406,128,127,129,126,127,128,123,126,0
10410,130,128,128,130,128,129,125,127,0
10413,127,128,128,128,128,128,127,128,0
10416,129,128,128,128,127,128,129,128,0
10419,127,128,128,128,125,127,128,127,0
10422,126,127,128,126,128,128,128,128,0
10425,127,128,128,128,127,128,127,129,0
10428,127,128,127,128,128,128,128,128,0
10431,127,127,128,129,126,129,124,126,0
10434,130,127,128,131,128,129,127,127,0
10437,127,128,128,127,128,128,128,128,0
10439,128,128,129,126,128,129,129,128,0
10443,128,127,128,127,127,125,128,128,0
10448,126,128,128,126,129,127,128,127,0
10450,127,128,128,127,128,127,127,128,0
10453,128,129,128,128,128,128,128,128,0
10456,127,128,127,128,128,123,127,128,0
10458,127,126,127,127,129,127,128,128,0
10461,128,127,127,129,127,128,127,127,0
10464,128,128,128,129,128,128,128,128,0
10467,126,127,127,128,125,128,126,126,0
10469,129,127,126,130,128,128,123,126,0
10472,130,127,126,130,123,129,129,127,0
10475,127,128,127,127,128,129,129,128,0
10478,128,127,127,124,128,127,129,128,0
10481,127,127,128,127,128,128,128,128,0
10485,127,127,128,127,127,128,128,126,0
10490,129,128,128,128,127,128,128,128,0
10494,127,128,128,127,125,125,128,127,0
10497,126,127,128,128,127,126,128,127,0
10500,128,127,128,128,128,127,127,127,0
10504,128,128,127,129,129,126,128,128,0
10507,126,127,128,130,129,128,124,127,0
10510,129,127,127,130,128,128,123,126,0
10512,130,126,127,128,125,128,128,127,0
10517,128,128,129,126,126,128,129,128,0
10520,127,128,127,127,127,127,129,128,0
10523,129,128,128,126,125,125,128,128,0
10525,127,129,128,127,128,128,128,128,0
10529,127,128,128,126,127,128,128,128,0
10531,127,128,127,126,129,127,129,128,0
10536,127,127,127,125,125,127,124,126,0
10538,129,128,127,129,128,127,127,128,0
10541,128,128,127,126,128,129,129,129,0
10546,127,128,127,126,128,127,128,128,0
10549,127,128,128,125,127,127,128,128,0
10552,126,128,127,128,128,127,127,129,0
10555,127,129,127,128,127,128,128,129,0
10558,127,128,127,129,128,128,128,128,0
10562,127,127,127,127,127,127,128,128,0
10565,127,127,128,128,128,127,128,127,0
10568,127,128,128,129,128,130,128,127,0
10571,128,128,126,129,128,128,128,126,0
10574,130,127,127,130,128,128,123,126,0
10578,129,127,127,130,129,130,125,126,0
10582,128,127,127,128,129,130,129,129,0
10588,127,128,127,128,129,128,130,128,0
10592,126,127,127,125,126,127,128,128,0
10598,126,127,128,127,126,127,128,128,0
10603,127,129,127,127,128,129,128,128,0
10606,126,129,128,127,129,127,128,128,0
10610,127,128,128,127,127,128,123,125,0
10613,130,127,129,130,129,128,124,126,0
10617,127,128,128,128,128,129,128,128,0
10620,127,128,128,127,128,128,129,128,0
10623,126,128,128,127,128,127,129,127,0
10626,127,128,127,125,129,128,129,128,0
10629,128,128,127,129,128,128,129,128,0
10633,127,128,128,127,129,128,129,128,0
10636,127,128,126,128,125,128,125,126,0
10639,130,127,128,130,128,128,125,127,0
10642,128,129,127,124,128,129,128,128,0
10645,128,129,127,125,129,128,130,128,0
10650,127,129,129,124,128,127,128,128,0
10653,126,128,128,125,126,127,129,128,0
10656,127,128,128,127,128,128,127,128,0
10659,127,128,128,128,128,127,127,128,0
10662,127,127,128,128,126,126,126,128,0
10666,127,125,128,131,129,129,122,126,0
10670,130,126,127,128,128,130,128,128,0
10676,127,127,128,128,128,130,129,128,0
10680,127,128,127,126,127,128,129,127,0
10683,124,128,127,127,127,128,130,128,0
10687,126,128,128,129,127,127,128,126,0
10691,127,129,127,129,128,127,129,127,0
10694,127,127,127,127,123,124,128,128,0
10697,124,128,128,131,130,128,123,126,0
10701,129,127,127,130,125,128,130,128,0
10708,126,128,126,129,128,130,129,128,0
10711,126,128,126,129,128,127,129,128,0
10715,124,127,126,131,126,128,125,127,0
10718,128,127,126,129,130,129,128,128,0
10722,128,128,127,126,130,128,128,128,0
10725,128,128,127,126,128,127,128,128,0
10728,126,126,128,129,128,126,126,127,0
10731,128,127,126,129,125,125,128,128,0
10735,127,129,130,125,128,128,129,128,0
10738,128,128,129,125,128,127,129,128,0
10742,128,128,131,124,126,124,130,128,0
10745,127,128,128,125,129,128,129,128,0
10748,128,128,128,128,128,129,128,128,0
10751,128,128,129,127,127,127,128,128,0
10755,129,125,129,130,128,129,123,126,0
10758,130,126,128,130,128,129,128,128,0
10761,128,126,131,128,128,129,128,128,0
10765,128,128,128,127,126,128,128,128,0
10768,125,126,129,126,125,127,128,128,0
10771,126,128,127,128,126,127,128,128,0
10774,128,128,127,130,128,127,129,127,0
10777,127,127,126,129,127,126,128,128,0
10780,125,127,128,128,125,125,125,126,0
10782,129,126,128,129,125,127,125,126,0
10786,129,127,126,129,129,129,127,128,0
10790,128,128,127,126,127,128,128,128,0
10793,128,128,129,128,127,126,129,127,0
10797,127,127,129,128,127,128,129,127,0
10800,128,127,127,127,129,127,129,128,0
10804,128,128,127,128,129,128,128,128,0
10808,128,126,127,127,126,127,122,126,0
10812,131,128,127,129,129,128,124,125,0
10817,129,128,128,128,128,130,128,128,0
10821,127,127,127,127,129,128,128,128,0
10824,128,128,127,126,128,127,129,128,0
10827,127,127,126,128,128,127,129,128,0
10830,128,127,127,128,129,127,128,127,0
10836,127,127,128,126,126,125,127,128,0
10833,128,128,128,128,127,126,127,128,0
10839,130,127,127,131,129,127,124,125,0
10845,130,125,127,126,127,127,128,127,0
10848,128,128,128,127,127,126,129,127,0
10851,127,127,128,128,124,126,129,127,0
10858,127,127,128,128,127,127,128,128,0
10861,128,128,127,128,127,127,127,128,0
10865,128,128,126,128,127,127,127,128,0
10868,127,127,127,127,125,126,127,128,0
10871,126,127,127,126,126,123,123,126,0
10875,129,127,126,130,128,127,128,128,0
10878,128,128,127,128,128,129,128,127,0
10881,127,127,127,126,126,127,128,127,0
10885,127,127,127,128,127,129,128,127,0
10888,127,127,128,128,128,128,127,127,0
10891,128,128,127,130,127,128,128,128,0
10895,128,127,128,128,126,125,123,126,0
10898,129,127,127,131,128,128,123,126,0
10902,130,127,127,125,128,129,129,128,0
10905,127,128,128,127,127,128,129,129,0
10908,127,129,127,126,127,127,129,128,0
10911,127,128,127,125,128,126,129,127,0
10914,127,128,127,127,127,128,128,128,0
10917,127,129,127,128,128,128,128,128,0
10922,126,128,127,127,130,125,128,127,0
10926,126,127,127,126,127,127,127,127,0
10934,128,127,127,126,130,129,128,128,0
10938,127,128,127,128,130,128,128,128,0
10941,128,128,127,127,129,125,123,126,0
10944,130,127,127,130,130,128,123,126,0
10947,131,126,127,129,127,125,128,128,0
10951,129,127,127,125,128,129,129,128,0
10954,126,127,128,125,129,128,129,128,0
10958,126,126,127,127,124,127,129,129,0
10961,127,128,128,127,129,128,128,128,0
10964,127,127,127,128,128,128,128,128,0
10967,127,128,127,125,126,126,127,127,0
10969,127,127,126,130,128,129,125,126,0
10973,130,126,128,130,127,127,130,127,0
10978,127,128,130,126,126,128,129,128,0
10981,128,128,127,127,126,128,129,128,0
10985,127,128,127,127,128,126,127,128,0
10988,126,128,127,127,127,127,128,127,0
10991,127,129,128,129,128,128,128,127,0
10995,128,129,127,129,130,128,128,128,0
10998,127,128,128,129,126,126,125,127,0
11001,129,126,127,130,126,127,126,127,0
11004,128,127,127,128,128,130,130,128,0
11007,126,129,127,128,128,129,129,129,0
11010,126,128,127,125,128,129,128,127,0
11013,127,128,126,131,128,128,123,128,0
11016,126,129,128,128,128,129,128,128,0
11018,126,128,127,126,127,128,128,128,0
11021,126,128,127,125,128,127,128,128,0
11024,126,128,127,126,128,129,128,128,0
11027,127,127,127,128,128,130,127,127,0
11030,127,129,128,127,127,130,128,128,0
11035,127,127,128,126,125,127,123,126,0
11041,130,127,128,130,129,127,123,126,0
11048,130,127,130,125,127,128,129,129,0
11050,127,128,126,127,127,128,129,128,0
11053,126,128,129,125,128,127,130,129,0
11056,126,127,126,127,126,127,129,129,0
11059,127,127,126,128,126,127,130,128,0
11062,127,128,128,128,128,127,128,128,0
11065,128,127,127,126,127,128,126,126,0
11069,129,126,128,129,130,128,124,126,0
11072,128,126,129,127,129,127,128,127,0
11076,128,127,127,125,128,128,129,128,0
11079,127,128,129,125,128,127,129,128,0
11082,126,128,127,126,127,127,128,127,0
11085,127,127,128,129,128,127,128,128,0
11088,128,128,129,129,128,127,128,127,0
11092,128,128,128,129,120,124,124,126,0
11095,130,127,126,131,128,127,123,126,0
11099,130,127,126,126,128,128,128,128,0
11102,126,129,127,128,128,128,128,128,0
11105,127,128,127,127,128,128,130,129,0
11108,126,128,129,126,128,128,129,128,0
11113,126,128,129,126,127,129,128,128,0
11116,128,128,127,128,128,128,128,128,0
11119,127,128,126,125,127,125,128,127,0
11121,129,126,128,126,125,127,124,127,0
11126,128,126,127,129,124,126,128,128,0
11129,128,127,127,126,128,128,127,128,0
11132,127,128,127,126,128,126,128,128,0
11135,126,125,127,130,128,128,123,126,0
11138,130,127,127,127,128,129,128,128,0
11142,127,129,127,125,129,127,128,128,0
11145,128,128,127,127,129,127,129,128,0
11150,129,128,128,125,129,126,128,128,0
11157,129,128,128,128,126,126,127,127,0
11160,127,128,127,128,129,129,128,128,0
11165,128,128,127,128,127,126,129,128,0
11168,127,127,128,126,125,125,130,126,0
11171,129,128,127,133,128,128,124,127,0
11174,127,128,127,129,129,129,129,127,0
11178,128,128,127,126,128,127,130,128,0
11182,126,128,127,126,126,126,128,127,0
11185,129,127,127,126,128,128,127,127,0
11187,127,128,127,127,130,129,127,128,0
11190,127,128,127,129,128,127,127,128,0
11194,127,127,127,130,128,128,122,126,0
11197,130,127,128,130,126,127,125,128,0
11200,126,128,127,128,128,129,130,128,0
11203,128,128,127,128,126,128,128,128,0
11206,127,126,127,127,127,128,128,128,0
11210,126,127,127,128,127,128,128,128,0
11214,127,127,127,129,129,130,128,127,0
11217,126,128,128,128,128,128,126,128,0
11221,127,126,128,129,129,129,123,126,0
11224,129,127,128,130,128,127,126,127,0
11228,127,128,127,127,128,129,130,126,0
11232,131,127,128,127,128,127,129,128,0
11236,126,126,128,128,128,126,129,129,0
11239,126,125,130,127,127,126,128,128,0
11242,126,128,128,125,128,127,128,128,0
11247,126,128,128,125,128,127,129,128,0
11250,125,127,127,124,129,127,129,128,0
11254,126,127,127,127,124,128,128,128,0
11261,127,128,128,125,128,128,128,127,0
11264,127,128,127,126,128,129,129,128,0
11269,126,128,128,126,121,126,123,125,0
11279,129,127,126,127,128,128,130,128,0
11275,130,127,127,131,128,128,124,126,0
11286,127,129,127,126,127,127,128,128,0
11290,127,127,129,128,127,126,129,128,0
11293,126,126,126,129,127,127,125,126,0
11298,129,127,127,125,129,129,128,128,0
11302,128,128,127,125,127,129,129,128,0
11305,128,127,127,128,128,127,129,128,0
11308,127,127,127,127,127,126,128,128,0
11312,127,127,126,127,126,127,128,127,0
11315,128,128,128,128,126,127,129,128,0
11318,128,128,128,127,127,124,129,128,0
11322,126,127,128,126,126,128,129,127,0
11325,129,127,127,131,125,127,124,125,0
11328,127,129,127,128,129,128,128,128,0
11331,127,128,128,128,126,127,129,128,0
11336,126,126,126,131,130,129,123,125,0
11338,130,127,128,129,125,131,130,128,0
11342,128,128,126,126,129,128,127,129,0
11345,126,128,127,126,128,127,128,127,0
11349,126,127,127,128,129,125,129,128,0
11352,126,127,127,126,130,128,127,128,0
11355,126,128,127,128,127,127,128,127,0
11358,127,128,129,127,129,129,127,128,0
11362,127,128,128,129,128,127,124,125,0
11365,130,126,128,131,128,126,127,129,0
11369,128,128,127,126,129,129,129,128,0
11375,127,128,128,127,129,127,129,128,0
11378,128,128,128,126,128,126,129,128,0
11382,126,128,126,128,127,128,128,128,0
11387,128,129,127,129,128,128,128,127,0
11393,128,129,128,126,126,126,129,128,0
11396,126,128,127,129,128,128,123,125,0
11400,131,127,128,129,129,126,127,127,0
11402,129,127,130,126,129,127,128,128,0
11407,127,128,127,125,131,128,130,128,0
11411,129,128,129,125,127,127,129,128,0
11414,126,128,126,125,126,128,129,128,0
11417,127,128,128,128,127,128,128,128,0
11422,126,127,128,127,125,127,127,127,0
11427,127,128,129,127,123,125,128,128,0
11430,127,127,128,127,127,128,127,128,0
11434,128,128,128,130,127,130,127,128,0
11437,127,128,127,129,126,129,127,128,0
11440,129,127,127,131,127,129,123,125,0
11444,130,127,128,130,127,130,123,126,0
11447,126,127,131,126,128,129,130,129,0
11450,128,128,128,126,127,128,129,128,0
11453,126,127,127,127,131,127,130,128,0
11457,128,128,129,126,128,128,129,127,0
11460,127,128,128,126,126,129,128,127,0
11463,127,128,127,126,128,128,128,128,0
11466,126,127,129,128,122,127,128,128,0
11469,128,127,129,127,127,127,128,129,0
11472,128,128,127,129,127,129,129,128,0
11476,128,128,128,129,129,126,127,128,0
11479,128,128,126,131,130,126,123,126,0
11483,131,127,127,131,128,127,124,126,0
11486,129,127,126,128,131,128,130,129,0
11489,128,128,127,126,127,127,128,128,0
11494,127,127,127,127,127,126,129,128,0
11497,126,127,127,126,126,125,128,127,0
11502,130,127,127,125,127,128,127,128,0
11507,127,127,128,128,126,128,128,128,0
11512,126,127,126,126,127,124,128,128,0
11516,126,127,129,126,130,128,126,128,0
11530,128,128,128,126,127,130,127,128,0
11533,128,129,128,127,128,129,128,128,0
11538,126,127,126,127,124,128,122,126,0
11541,130,127,126,131,129,129,124,127,0
11545,130,127,126,129,124,129,129,128,0
11549,130,128,127,125,129,130,130,128,0
11553,127,129,127,126,127,129,129,126,0
11556,126,125,127,127,124,127,129,128,0
11560,126,129,128,126,128,129,128,128,0
11563,127,129,129,127,127,128,128,128,0
11566,127,128,127,128,131,124,127,127,0
11570,126,126,128,129,129,127,124,125,0
11573,130,127,128,130,124,127,130,128,0
11577,127,127,131,128,128,127,130,127,0
11613,126,128,127,128,130,129,130,128,0
11618,126,126,128,126,126,126,129,128,0
11622,127,128,128,128,127,127,128,128,0
11625,127,129,126,126,128,129,129,128,0
11628,127,128,129,126,127,125,129,129,0
11683,127,127,127,125,126,126,128,128,0
11693,126,128,126,126,127,130,127,127,0
11700,128,128,126,127,127,129,128,127,0
11705,128,127,128,128,127,123,128,127,0
11710,127,126,126,130,128,127,123,125,0
11752,131,127,127,131,127,126,126,128,0
11763,127,128,127,126,128,127,128,128,0
11769,131,129,130,127,127,125,128,127,0
11775,127,126,128,128,129,125,128,127,0
11780,128,128,127,130,127,127,124,127,0
11818,128,127,128,129,129,129,129,128,0
11834,130,126,128,128,128,126,129,128,0
11843,126,127,128,127,130,129,130,128,0
11885,126,127,127,125,126,126,126,128,0
11896,128,129,129,127,129,127,128,128,0
11903,128,129,127,126,128,127,129,128,0
11912,127,126,128,130,128,129,122,126,0
11917,131,127,128,130,128,127,126,128,0
11952,127,128,129,129,129,128,128,127,0
11964,130,127,130,126,127,129,129,128,0
11974,128,126,128,127,125,125,129,127,0
11983,126,126,128,128,129,129,128,128,0
11988,126,128,127,129,129,128,128,128,0
11992,126,128,126,127,127,130,129,129,0
11995,126,127,126,126,125,127,127,129,0
11999,126,129,128,127,127,125,127,127,0
12002,128,129,127,127,127,128,128,128,0
12006,127,128,126,130,127,128,127,128,0
12009,126,127,127,127,126,124,122,126,0
12013,130,127,127,133,128,128,123,126,0
12016,129,127,126,126,127,131,128,128,0
12022,127,128,126,129,128,128,129,128,0
12026,126,126,129,127,128,129,126,128,0
12029,128,127,127,127,129,130,129,127,0
12033,128,128,128,127,128,128,127,128,0
12036,128,127,126,127,128,128,128,127,0
12040,127,129,128,125,126,123,124,125,0
12044,131,127,127,130,128,128,123,126,0
12047,129,125,127,127,128,129,129,128,0
12049,127,128,127,128,129,128,129,128,0
12053,126,128,128,127,130,126,128,128,0
12055,126,126,128,128,126,127,129,128,0
12058,127,128,128,129,127,128,128,129,0
12061,127,128,130,128,128,126,129,128,0
12064,128,127,129,125,127,128,129,128,0
12067,126,125,128,129,128,128,122,125,0
12070,129,127,128,128,128,128,128,128,0
12075,127,128,128,125,128,128,128,128,0
12077,127,128,127,125,128,127,129,128,0
12080,127,127,128,126,129,129,129,128,0
12087,127,128,127,125,126,129,127,128,0
12090,127,128,127,127,126,127,128,128,0
12095,128,128,127,127,124,125,126,126,0
12097,129,127,125,130,129,127,123,126,0
12102,130,127,128,125,128,128,129,128,0
12105,126,128,127,126,128,129,129,127,0
12108,127,128,127,125,128,126,128,128,0
12111,129,126,127,125,131,125,128,128,0
12115,126,127,127,125,128,128,128,129,0
12119,127,128,126,128,128,128,127,127,0
12124,127,127,126,127,126,125,128,127,0
12128,127,127,127,126,127,128,124,125,0
12133,132,127,127,130,128,125,129,127,0
12136,128,128,127,126,129,128,129,128,0
12152,128,127,128,127,129,128,129,128,0
12156,128,128,127,126,128,126,128,128,0
12159,126,128,126,129,129,128,129,128,0
12163,127,129,127,128,127,129,128,129,0
12166,127,129,128,128,125,124,128,128,0
12223,128,126,127,129,127,128,124,126,0
12239,131,127,127,129,126,127,126,129,0
12253,128,128,127,128,126,127,128,127,0
12260,128,128,127,129,128,126,129,128,0
12265,127,128,128,126,125,126,130,128,0
12268,127,128,126,125,126,127,129,127,0
12272,128,127,127,127,128,130,130,128,0
12277,127,128,128,127,128,128,129,127,0
12280,127,125,127,130,129,128,124,126,0
12284,130,126,127,131,128,126,126,127,0
12287,129,126,127,128,129,128,128,128,0
12291,127,127,127,128,130,127,128,128,0
12294,126,126,126,128,128,128,128,128,0
12297,126,128,126,128,128,129,128,128,0
12300,127,128,128,127,127,126,127,128,0
12304,127,128,128,126,128,127,127,128,0
12307,127,127,130,127,130,126,122,126,0
12310,130,128,128,131,129,129,123,126,0
12314,128,127,127,125,130,131,130,127,0
12318,127,128,128,128,130,129,131,129,0
12324,126,128,127,127,129,128,131,129,0
12329,127,128,129,126,127,124,129,129,0
12332,128,128,128,125,128,128,129,128,0
12336,127,129,128,125,127,128,129,128,0
12339,127,127,127,124,126,125,127,128,0
12342,127,128,129,125,127,128,127,128,0
12345,127,128,127,126,128,129,126,127,0
12349,128,128,128,127,126,129,127,127,0
12352,127,128,128,128,126,129,121,125,0
12355,132,128,126,131,128,130,123,126,0
12359,131,128,127,126,127,131,132,128,0
12362,127,129,127,128,129,130,131,129,0
12365,127,128,126,126,126,126,129,129,0
12369,127,126,127,127,127,125,129,127,0
12372,126,129,127,129,128,128,128,128,0
12375,128,129,127,129,130,127,128,128,0
12379,126,127,128,130,124,127,125,126,0
12382,129,126,127,132,130,127,123,126,0
12385,130,127,128,127,130,129,127,128,0
12389,128,129,127,125,127,129,128,127,0
12392,127,128,127,128,127,128,129,128,0
12396,125,127,126,125,125,126,129,128,0
12398,126,128,127,128,127,127,128,127,0
12401,126,128,127,129,128,128,128,128,0
12407,127,128,126,129,129,126,129,127,0
12410,127,128,128,127,129,127,128,128,0
12414,127,127,128,128,127,128,128,128,0
12417,127,128,127,129,127,129,128,128,0
12421,127,127,127,128,123,123,128,127,0
12426,127,127,127,129,123,125,127,128,0
12429,127,124,126,131,127,128,122,125,0
12432,129,125,128,127,124,128,128,128,0
12435,127,127,125,127,125,124,129,128,0
12438,127,127,128,126,128,126,130,127,0
12441,128,127,127,131,130,129,124,125,0
12444,127,128,128,127,129,128,128,127,0
12450,127,127,129,126,130,128,130,128,0
12454,127,127,128,127,129,127,130,128,0
12457,127,127,128,129,129,129,129,128,0
12491,127,128,129,130,129,129,127,127,0
12501,127,128,130,130,129,127,128,128,0
12509,126,126,131,129,127,128,123,125,0
12517,131,127,130,131,129,127,125,127,0
12522,129,129,130,129,129,129,129,128,0
12559,128,128,129,129,128,128,129,128,0
12569,127,128,129,126,128,128,129,128,0
12585,128,127,129,128,127,128,128,127,0
12595,127,129,130,128,128,127,128,128,0
12603,127,128,128,128,128,129,128,128,0
12609,128,127,128,128,127,125,128,128,0
12613,128,128,128,128,126,129,128,128,0
12618,129,128,128,129,127,128,127,127,0
12621,128,128,129,129,128,126,127,127,0
12625,127,125,126,133,128,128,123,125,0
12628,131,127,129,131,128,130,124,126,0
12632,127,128,128,128,128,130,129,127,0
12636,126,128,127,127,126,128,129,127,0
12641,127,128,129,127,122,126,129,128,0
12645,129,126,128,124,126,126,127,127,0
12649,128,127,126,126,127,127,127,128,0
12652,127,128,126,126,123,127,127,128,0
12655,127,127,126,127,126,125,128,128,0
12658,126,126,125,126,126,127,128,129,0
12662,127,127,125,128,127,128,127,128,0
12665,127,127,125,127,127,127,127,127,0
12668,127,127,126,128,128,127,124,126,0
