Start Recording
18,128,127,127,128,128,129,128,127,0
24,127,127,124,128,128,130,129,127,0
28,128,128,126,127,129,129,130,128,0
34,128,128,127,127,127,127,130,128,0
37,127,128,128,125,130,127,130,127,0
41,128,127,130,127,128,129,131,128,0
44,128,128,130,125,127,127,130,128,0
48,131,126,132,128,127,127,126,126,0
51,130,127,132,128,128,129,128,126,0
55,130,127,132,127,126,128,131,128,0
58,126,129,131,126,128,127,130,128,0
61,125,125,132,128,128,127,123,127,0
65,129,127,132,128,127,127,123,127,0
68,129,127,131,126,128,128,127,129,0
71,127,129,130,126,129,128,128,128,0
74,127,128,130,126,126,123,121,127,0
98,129,127,129,129,128,127,122,126,0
107,129,127,129,126,128,127,127,128,0
112,126,128,128,125,129,128,127,129,0
116,125,127,127,127,130,123,122,126,0
120,130,125,127,130,128,127,122,127,0
123,127,127,125,128,128,128,126,128,0
127,127,128,126,125,127,127,126,128,0
131,125,127,123,127,127,125,126,128,0
134,126,126,127,129,127,127,120,126,0
138,129,126,126,125,128,127,126,127,0
141,127,128,124,126,127,127,125,127,0
144,127,126,127,125,127,126,127,126,0
147,126,126,127,127,128,127,126,125,0
150,127,126,129,126,128,128,127,128,0
153,127,128,129,126,128,128,127,128,0
157,127,126,131,126,124,126,121,125,0
160,129,127,132,132,128,127,123,125,0
163,128,127,130,127,130,127,127,126,0
167,128,127,130,126,129,129,127,128,0
170,128,128,132,127,132,127,129,128,0
173,126,126,133,127,131,128,128,126,0
175,127,127,132,128,129,129,129,128,0
178,128,129,131,129,128,128,129,128,0
181,128,129,131,128,128,126,129,128,0
184,127,127,132,127,128,124,125,125,0
187,131,128,130,130,126,127,129,127,0
192,128,129,130,126,128,129,131,128,0
194,127,129,130,127,130,127,130,128,0
198,126,127,127,127,127,127,130,128,0
201,127,129,125,125,128,129,129,128,0
204,128,128,123,127,126,130,130,128,0
208,128,128,123,127,126,128,130,127,0
213,130,127,123,132,127,129,124,126,0
218,130,127,123,131,125,127,129,128,0
220,128,129,120,129,128,130,129,128,0
256,128,128,120,125,126,128,129,128,0
262,127,126,122,128,127,126,129,128,0
267,126,128,121,128,127,128,128,128,0
324,128,128,122,127,126,128,129,128,0
330,127,128,125,127,126,128,129,128,0
334,127,128,124,126,129,127,126,126,0
338,128,126,126,130,126,126,124,126,0
341,128,128,126,127,127,129,132,129,0
390,127,129,125,126,127,129,130,128,0
397,127,128,126,126,127,127,130,128,0
402,127,127,128,127,127,128,130,128,0
406,127,128,129,129,128,129,129,128,0
410,127,128,129,128,127,128,129,128,0
414,127,126,130,130,126,127,124,126,0
417,130,126,130,130,126,126,127,128,0
421,128,128,130,128,128,129,129,128,0
459,126,128,128,128,128,128,129,128,0
464,126,128,128,124,129,127,129,128,0
469,126,127,127,126,129,128,128,128,0
474,127,127,128,129,128,128,128,128,0
478,128,128,129,128,127,127,128,128,0
529,127,127,129,127,128,126,126,128,0
542,127,127,129,128,128,128,127,128,0
547,128,128,128,128,127,128,127,128,0
551,127,128,129,128,127,128,127,128,0
555,126,128,129,129,124,126,122,126,0
596,130,127,130,130,125,127,122,126,0
604,126,128,129,127,127,130,128,128,0
625,127,129,129,128,127,128,128,128,0
630,126,127,130,127,126,127,128,128,0
634,126,127,129,128,128,128,128,128,0
638,127,127,129,128,126,127,128,128,0
641,128,127,128,128,126,127,127,128,0
645,126,128,129,127,127,125,128,128,0
648,127,126,128,130,127,126,123,125,0
652,131,126,129,128,129,129,128,127,0
655,127,127,128,127,127,128,128,127,0
659,128,127,128,125,128,127,128,128,0
662,126,127,130,127,128,127,128,128,0
665,126,128,129,127,127,128,127,128,0
668,127,128,130,127,128,128,128,128,0
671,126,127,130,127,124,127,122,126,0
674,128,128,129,129,127,127,122,126,0
678,130,128,129,127,130,128,128,128,0
681,128,129,127,126,129,129,128,128,0
684,126,128,128,127,129,127,128,127,0
688,127,127,128,125,130,125,128,128,0
691,127,129,127,128,129,127,127,128,0
694,127,128,126,129,129,128,128,128,0
697,127,128,127,126,129,126,124,125,0
702,130,126,127,130,128,127,123,125,0
707,130,126,127,129,122,129,130,128,0
711,127,128,125,126,128,129,128,128,0
714,127,128,128,127,128,127,129,128,0
717,127,128,125,127,127,125,128,128,0
720,127,128,126,128,129,129,129,128,0
723,127,128,124,126,128,129,128,127,0
726,128,128,124,126,128,129,129,127,0
730,131,126,126,130,127,128,124,125,0
734,130,126,125,130,125,126,131,126,0
737,128,127,126,128,128,129,130,127,0
741,127,127,125,125,128,127,128,128,0
743,125,128,126,126,129,126,129,127,0
746,129,127,126,129,126,127,126,126,0
749,127,129,123,127,129,131,129,128,0
752,127,129,124,127,128,128,131,128,0
755,127,128,127,128,126,128,123,125,0
758,131,126,127,130,128,129,127,129,0
761,127,129,126,127,130,130,131,128,0
763,129,128,126,128,130,128,131,128,0
767,126,127,127,126,129,127,132,128,0
770,127,128,128,127,130,129,131,128,0
773,127,128,126,126,128,129,130,128,0
776,127,128,126,128,129,128,132,127,0
798,125,127,128,127,127,126,130,126,0
805,130,127,129,131,126,128,124,126,0
810,127,129,129,128,129,129,129,128,0
814,128,129,125,126,127,128,130,129,0
819,126,128,127,127,126,128,131,128,0
825,125,128,128,128,128,127,128,128,0
830,127,128,127,129,128,128,128,128,0
833,126,129,127,126,126,128,130,128,0
837,124,127,129,128,125,127,121,125,0
840,130,127,129,131,126,128,123,127,0
844,125,126,129,128,127,131,129,128,0
864,126,128,129,128,127,130,128,128,0
873,126,127,131,127,126,126,130,129,0
878,126,126,132,126,125,126,127,128,0
882,126,128,130,129,126,128,129,128,0
885,127,128,131,127,126,127,128,128,0
933,127,127,131,126,126,126,128,128,0
939,128,127,131,128,122,125,127,128,0
945,127,128,131,127,126,127,127,128,0
949,128,128,129,129,126,127,127,128,0
953,127,127,129,126,120,124,121,126,0
957,131,126,128,130,126,126,123,126,0
961,130,127,129,128,127,127,128,128,0
965,129,128,126,126,126,128,128,128,0
968,127,128,124,125,126,126,127,128,0
972,127,128,124,125,125,127,126,128,0
975,127,128,123,128,127,129,127,127,0
978,127,129,122,127,126,129,127,127,0
982,127,128,122,127,126,126,125,127,0
986,127,127,121,126,128,127,127,128,0
988,127,128,123,128,128,128,126,127,0
991,128,128,123,128,128,129,127,128,0
1001,127,128,123,126,129,128,128,127,0
1005,127,126,125,130,130,128,123,126,0
1009,130,127,127,131,129,128,127,127,0
1012,129,128,125,126,131,129,129,128,0
1015,128,129,125,125,130,128,130,127,0
1020,127,127,128,125,127,128,130,128,0
1022,127,128,129,127,130,129,129,128,0
1025,127,128,130,128,129,129,129,128,0
1028,127,128,130,128,128,125,127,127,0
1031,129,126,131,130,127,127,124,126,0
1034,129,126,132,130,127,125,131,128,0
1037,126,128,130,128,129,129,129,128,0
1040,126,128,130,127,127,128,129,128,0
1043,126,128,132,128,127,126,128,128,0
1047,126,126,132,128,128,129,128,128,0
1050,127,128,131,128,127,129,127,128,0
1067,127,128,130,128,127,127,127,128,0
1073,126,126,130,126,127,123,124,125,0
1076,129,126,131,130,125,128,124,125,0
1079,130,128,130,127,126,128,127,128,0
1083,127,127,129,126,126,127,128,129,0
1086,126,127,131,127,126,126,126,128,0
1090,127,127,132,126,127,127,127,127,0
1093,128,128,130,128,127,128,128,128,0
1098,128,128,130,127,126,127,128,128,0
1101,126,127,130,128,120,125,122,127,0
1104,130,127,129,131,127,127,124,127,0
1135,126,129,128,127,129,128,128,128,0
1144,128,129,127,125,128,127,130,128,0
1149,126,128,127,125,125,126,129,129,0
1156,127,126,128,125,126,127,128,128,0
1162,128,128,126,128,126,128,129,128,0
1203,127,128,126,127,126,129,129,129,0
1210,127,128,125,127,127,128,129,127,0
1216,130,127,125,130,127,129,125,127,0
1221,128,127,124,127,129,130,129,128,0
1225,127,128,124,127,128,129,129,129,0
1228,127,128,125,126,128,127,129,128,0
1232,127,128,126,127,127,128,129,127,0
1235,128,128,126,128,129,128,129,128,0
1239,128,128,128,127,129,129,129,128,0
1242,128,127,129,129,128,127,124,126,0
1245,129,126,130,130,129,128,123,126,0
1248,128,127,130,126,131,129,130,128,0
1251,127,128,130,126,130,129,130,128,0
1254,127,128,132,125,130,127,129,128,0
1257,127,128,134,125,129,127,128,127,0
1260,128,128,131,127,130,128,128,127,0
1263,127,129,130,127,128,129,128,128,0
1266,127,128,131,126,128,126,127,128,0
1269,129,127,131,130,127,127,123,126,0
1273,130,127,133,128,129,128,128,127,0
1275,129,128,132,126,129,129,128,128,0
1278,127,128,130,125,128,128,129,128,0
1281,124,128,131,127,129,127,129,128,0
1284,127,128,127,128,128,127,128,128,0
1287,128,127,127,128,127,129,128,127,0
1290,127,127,127,126,126,126,128,127,0
1296,128,125,129,131,126,127,123,126,0
1299,132,126,126,129,127,130,129,128,0
1302,129,127,126,127,128,129,129,127,0
1305,127,128,127,126,128,127,127,127,0
1307,129,127,127,126,128,127,129,128,0
1310,127,127,126,127,130,129,128,127,0
1313,129,127,125,128,128,129,128,128,0
1317,127,127,125,128,130,128,128,127,0
1320,126,127,126,130,127,127,123,125,0
1323,131,127,126,130,127,125,128,128,0
1326,128,128,127,128,130,128,129,128,0
1329,127,128,126,126,130,128,129,128,0
1332,128,128,127,125,127,126,129,128,0
1335,127,129,127,127,130,128,129,127,0
1338,128,128,127,128,129,128,129,128,0
1340,127,129,125,128,129,127,129,128,0
1344,127,127,124,130,127,126,124,126,0
1347,129,126,124,130,125,124,130,128,0
1350,127,129,123,128,128,129,128,128,0
1353,127,128,124,127,127,127,129,128,0
1356,127,128,123,124,128,126,128,128,0
1358,127,128,124,127,128,127,128,127,0
1361,127,128,124,128,127,128,128,127,0
1364,128,128,124,128,127,126,128,128,0
1367,127,127,124,127,125,125,128,127,0
1370,127,127,125,128,128,128,127,127,0
1373,128,128,125,129,128,128,127,127,0
1378,128,128,126,128,126,128,127,127,0
1382,127,127,128,130,125,127,122,125,0
1388,130,126,128,130,126,128,123,124,0
1393,128,128,128,126,127,130,128,128,0
1397,127,128,129,128,127,128,128,127,0
1400,127,127,130,127,126,127,128,128,0
1403,127,127,131,127,128,127,127,128,0
1407,128,128,131,128,126,127,127,128,0
1410,127,128,129,127,127,129,127,128,0
1413,127,127,129,126,127,124,123,126,0
1415,129,126,131,131,128,127,123,126,0
1418,129,125,129,127,127,128,129,128,0
1421,128,128,127,128,127,128,129,128,0
1424,126,128,126,126,128,127,129,128,0
1427,125,128,126,125,129,127,129,128,0
1430,127,129,124,128,127,128,128,128,0
1433,127,129,124,128,127,128,128,129,0
1437,127,128,123,127,126,126,128,128,0
1440,126,127,123,127,126,128,129,128,0
1443,127,128,123,128,127,128,128,127,0
1446,127,129,124,128,128,128,129,128,0
1449,128,129,124,126,126,127,124,125,0
1453,129,127,126,130,127,127,124,125,0
1456,130,127,126,126,131,129,130,128,0
1460,126,128,126,128,129,129,131,128,0
1463,127,128,128,127,129,128,130,127,0
1466,126,127,129,126,125,128,131,128,0
1469,127,127,129,128,129,129,130,128,0
1472,128,128,130,127,128,128,130,129,0
1476,127,127,130,128,127,124,129,127,0
1479,129,128,130,130,127,127,124,125,0
1484,131,127,132,130,126,126,130,128,0
1488,127,128,130,127,129,128,130,128,0
1491,125,128,130,125,130,127,130,127,0
1494,126,128,130,124,128,127,128,127,0
1497,126,128,128,128,128,127,127,128,0
1500,128,129,126,128,128,129,127,128,0
1504,127,128,125,126,121,126,126,128,0
1507,126,126,124,130,126,127,121,125,0
1510,129,127,124,131,126,126,127,128,0
1514,127,128,120,126,127,128,126,128,0
1517,126,128,122,125,126,127,124,127,0
1521,128,127,124,130,126,127,121,126,0
1525,130,127,124,127,128,131,125,127,0
1528,127,127,124,125,125,128,127,128,0
1531,129,128,124,125,125,127,127,129,0
1534,125,128,124,126,124,126,126,129,0
1537,126,127,125,127,129,127,127,129,0
1540,128,129,123,126,128,128,128,128,0
1543,127,128,125,128,127,127,129,128,0
1548,127,125,128,131,127,127,124,126,0
1551,131,127,125,131,129,129,125,128,0
1554,128,128,128,128,132,129,131,129,0
1558,126,128,127,128,129,130,133,128,0
1561,126,128,128,128,128,126,128,127,0
1565,128,127,127,129,129,127,129,129,0
1567,126,128,127,127,133,130,134,127,0
1570,127,128,127,127,132,131,134,131,0
1573,126,128,129,126,132,129,133,129,0
1576,126,127,128,126,130,128,132,128,0
1580,127,128,126,126,131,130,131,128,0
1585,127,128,128,127,131,128,132,128,0
1590,124,126,130,130,129,127,124,125,0
1593,130,126,130,130,130,128,124,127,0
1596,128,128,129,128,132,129,130,128,0
1599,128,126,130,128,131,128,130,129,0
1602,124,128,130,127,131,128,130,128,0
1605,126,126,131,127,130,128,128,128,0
1608,127,126,133,126,126,127,127,127,0
1611,129,128,133,127,126,126,126,128,0
1614,127,128,134,126,127,125,126,128,0
1618,127,127,135,126,125,125,125,127,0
1621,128,127,136,129,126,126,125,127,0
1625,128,128,135,128,123,126,125,128,0
1631,127,128,136,126,124,124,123,126,0
1634,128,126,139,129,122,124,124,126,0
1639,127,127,135,128,124,127,125,127,0
1643,128,127,136,128,125,126,125,128,0
1647,127,127,134,128,125,125,126,128,0
1650,127,126,135,126,125,126,126,128,0
1653,128,127,134,128,125,126,125,128,0
1657,128,128,135,128,124,127,125,128,0
1659,127,127,133,127,124,125,125,128,0
1663,127,127,133,127,123,123,124,127,0
1666,127,128,132,127,124,126,125,127,0
1668,128,128,130,128,125,127,126,128,0
1672,127,129,129,127,124,126,126,127,0
1676,130,126,128,130,125,126,122,126,0
1681,130,128,126,128,125,129,128,128,0
1686,128,128,125,126,126,127,128,127,0
1689,127,128,122,126,127,127,128,128,0
1692,127,129,123,126,128,127,129,128,0
1695,126,129,121,127,128,129,128,128,0
1697,128,129,120,127,129,128,128,128,0
1700,128,128,119,126,130,128,129,128,0
1703,126,128,121,127,128,127,124,126,0
1706,130,128,120,129,130,128,125,126,0
1709,131,128,121,127,131,129,130,128,0
1713,127,128,120,126,130,126,130,128,0
1717,125,127,121,129,131,128,126,126,0
1720,130,127,122,129,128,125,131,128,0
1723,128,129,121,126,131,130,131,128,0
1727,127,128,122,125,131,128,132,128,0
1731,127,126,124,127,130,126,128,126,0
1733,128,126,125,129,130,126,128,129,0
1740,127,128,124,127,133,130,132,127,0
1743,128,128,125,126,130,129,132,128,0
1747,127,125,127,125,127,126,127,127,0
1752,129,127,129,130,129,128,126,126,0
1755,128,128,127,128,132,130,131,127,0
1760,128,128,129,125,130,130,131,128,0
1763,126,127,128,127,127,129,124,126,0
1766,131,126,129,129,126,126,132,128,0
1769,127,128,127,128,131,130,131,128,0
1772,127,128,127,125,131,129,130,129,0
1776,126,126,127,125,126,128,129,129,0
1781,126,127,126,129,126,128,124,127,0
1789,128,128,124,125,129,130,127,128,0
1793,128,128,122,126,128,129,127,128,0
1797,127,127,124,129,126,129,120,126,0
1799,129,127,124,130,128,127,125,129,0
1802,127,128,122,125,129,132,127,129,0
1805,126,128,123,126,126,128,126,128,0
1809,127,127,123,124,128,127,127,129,0
1812,126,128,123,126,124,128,128,128,0
1816,127,128,124,128,126,129,126,129,0
1819,127,128,124,128,125,127,127,128,0
1822,127,129,124,126,126,127,129,128,0
1827,126,128,126,127,125,126,127,128,0
1830,127,129,126,129,126,129,129,128,0
1835,127,129,129,128,125,128,129,129,0
1837,126,128,128,130,124,126,123,126,0
1840,130,127,130,130,126,127,126,127,0
1845,127,129,131,128,127,128,130,129,0
1848,128,129,128,127,125,128,130,129,0
1852,126,128,128,125,125,126,130,128,0
1855,127,128,129,125,126,127,130,128,0
1858,128,128,130,128,127,127,129,127,0
1861,127,128,131,128,126,126,129,128,0
1865,126,128,130,128,126,126,130,128,0
1868,126,126,132,130,125,126,124,127,0
1871,129,125,131,127,126,129,130,128,0
1874,127,128,129,127,126,129,130,128,0
1877,126,128,130,127,127,128,130,128,0
1882,127,127,130,126,126,127,130,128,0
1887,127,128,128,127,127,128,128,128,0
1890,127,127,129,128,128,128,128,128,0
1893,127,127,128,126,128,128,128,127,0
1897,130,126,128,130,128,128,122,125,0
1900,131,126,129,130,127,129,128,127,0
1905,127,127,127,128,130,130,130,128,0
1908,127,127,127,125,130,128,129,127,0
1911,126,128,128,125,130,127,128,127,0
1913,128,127,128,127,130,128,127,127,0
1917,128,128,127,128,130,128,128,127,0
1919,127,128,127,129,129,127,127,128,0
1922,127,127,127,127,127,125,127,127,0
1925,128,127,127,128,131,128,126,128,0
1928,128,127,126,128,130,129,126,128,0
1931,128,128,126,127,130,127,125,126,0
1934,130,126,127,131,130,128,122,126,0
1936,130,127,126,131,127,124,127,126,0
1939,129,128,127,129,130,127,127,127,0
1942,126,127,123,126,129,127,127,128,0
1946,127,127,124,127,128,126,126,128,0
1949,126,128,123,126,127,126,125,128,0
1952,128,128,125,128,127,126,125,127,0
1955,127,128,122,128,126,126,124,127,0
1959,126,128,124,129,124,126,119,126,0
1963,131,127,124,130,126,127,122,127,0
1967,128,128,124,126,127,128,127,129,0
1971,127,128,124,126,126,127,126,128,0
1976,127,128,124,124,125,125,126,127,0
1981,127,128,124,127,127,127,126,128,0
1985,127,128,125,128,127,127,127,128,0
1988,127,128,124,127,127,128,129,128,0
1991,127,127,127,128,126,127,124,126,0
1996,130,126,127,129,127,128,124,126,0
1999,128,127,126,128,129,129,131,128,0
2002,127,128,126,126,126,128,130,128,0
2005,126,128,128,125,127,127,132,127,0
2009,129,126,129,130,129,128,127,126,0
2012,124,127,130,126,128,130,132,128,0
2015,127,128,128,126,129,129,133,129,0
2019,126,128,131,127,128,125,134,128,0
2022,126,128,131,126,128,128,133,128,0
2025,127,129,129,128,129,129,132,128,0
2028,128,129,129,128,128,129,134,128,0
2032,126,128,130,126,125,128,128,127,0
2035,129,126,131,131,128,128,126,126,0
2038,130,127,132,125,130,130,133,128,0
2041,127,128,129,126,131,130,133,128,0
2045,126,128,130,127,129,127,132,128,0
2049,125,126,131,127,131,127,132,128,0
2051,125,129,130,125,131,130,129,127,0
2054,127,128,129,126,131,129,131,128,0
2059,126,127,130,126,130,125,123,126,0
2062,130,126,130,131,130,128,124,126,0
2065,130,126,129,127,128,131,130,127,0
2072,130,128,128,125,129,130,130,126,0
2077,127,128,127,125,126,128,130,128,0
2084,125,127,130,127,129,128,130,128,0
2089,128,126,130,128,130,127,128,128,0
2092,128,128,129,128,129,128,127,128,0
2095,127,127,129,127,124,122,122,126,0
2098,130,126,131,131,128,126,121,126,0
2100,131,127,131,128,130,129,129,128,0
2103,127,128,129,129,128,129,128,128,0
2111,127,128,130,127,127,124,127,126,0
2108,126,127,129,127,127,127,129,129,0
2115,128,127,132,128,128,126,125,128,0
2118,131,129,129,126,126,128,127,129,0
2120,130,128,128,125,127,128,127,129,0
2124,128,126,130,127,127,124,120,126,0
2127,131,127,128,131,125,124,127,128,0
2131,129,127,130,126,128,127,126,128,0
2135,127,128,129,127,126,124,124,128,0
2139,128,128,127,129,128,126,120,126,0
2142,129,127,126,128,129,127,126,128,0
2145,129,128,126,127,129,128,128,128,0
2148,126,129,128,127,129,127,126,128,0
2150,124,127,129,127,129,126,127,128,0
2153,126,127,129,128,127,127,126,127,0
2156,128,128,125,126,126,127,127,128,0
2159,127,128,129,126,127,126,127,127,0
2161,126,126,128,124,126,125,127,127,0
2165,129,129,126,126,128,127,127,128,0
2172,129,128,126,127,126,126,128,128,0
2175,128,128,126,127,126,127,128,128,0
2179,128,126,126,130,126,127,124,126,0
2182,130,127,126,130,127,125,130,128,0
2185,127,129,128,128,128,128,130,128,0
2188,127,129,126,125,127,126,130,128,0
2190,128,129,127,127,128,126,130,128,0
2193,126,129,128,128,126,127,128,128,0
2197,126,128,126,126,127,128,129,127,0
2200,127,129,125,127,125,127,129,128,0
2203,125,128,125,125,124,125,128,128,0
2207,128,128,123,125,126,127,127,127,0
2210,127,128,124,128,128,129,127,127,0
2213,127,128,124,128,127,128,127,128,0
2216,126,128,125,126,126,126,126,126,0
2219,129,126,125,131,128,129,123,127,0
2222,129,126,124,126,129,130,128,128,0
2225,128,128,126,127,128,129,128,128,0
2228,126,128,125,125,126,128,127,127,0
2231,129,126,129,130,127,128,125,127,0
2235,127,127,128,126,127,131,128,128,0
2238,127,127,128,128,126,130,129,128,0
2241,127,128,130,127,127,127,131,127,0
2244,127,127,130,128,128,129,130,128,0
2247,128,128,130,129,127,129,129,128,0
2251,127,128,131,128,126,129,130,128,0
2254,126,128,131,127,125,126,128,126,0
2260,128,128,131,130,127,129,125,126,0
2266,130,128,132,127,128,129,131,128,0
2269,128,128,130,128,129,128,131,128,0
2271,126,128,130,127,128,127,130,128,0
2275,126,127,130,126,127,128,131,128,0
2278,127,128,128,128,128,128,129,127,0
2281,128,128,127,128,128,127,129,127,0
2284,127,127,128,128,127,124,127,126,0
2288,129,126,128,130,129,127,123,126,0
2291,131,128,127,127,130,129,128,128,0
2296,128,128,127,127,129,128,128,128,0
2299,128,128,127,125,128,128,128,127,0
2301,129,126,128,128,126,126,124,127,0
2304,128,125,128,127,128,129,127,128,0
2308,128,128,127,127,128,130,128,128,0
2311,127,127,127,125,127,126,127,127,0
2314,127,127,127,125,128,127,128,127,0
2317,127,128,127,128,129,128,127,128,0
2320,128,128,126,127,129,129,127,129,0
2323,126,128,126,127,128,124,123,126,0
2326,129,127,126,129,127,126,123,126,0
2330,130,127,127,130,127,124,128,128,0
2334,128,128,127,127,128,128,129,127,0
2338,127,127,126,125,128,126,129,129,0
2341,126,127,129,127,128,126,128,128,0
2345,127,127,127,126,130,127,129,128,0
2348,127,128,128,128,129,127,130,128,0
2354,126,128,126,126,126,125,128,128,0
2360,126,127,127,129,127,127,124,127,0
2366,129,126,128,131,128,126,125,127,0
2369,128,127,130,126,128,128,129,128,0
2372,129,126,130,126,127,126,129,129,0
2375,126,126,130,126,125,125,129,128,0
2379,126,126,129,127,129,128,128,128,0
2382,127,128,129,126,128,129,129,128,0
2386,127,128,129,126,129,129,129,128,0
2389,126,127,131,126,127,124,127,127,0
2393,130,126,130,130,129,128,123,126,0
2396,127,127,130,126,129,129,127,127,0
2399,127,128,131,129,128,128,129,128,0
2402,126,127,132,129,127,121,126,126,0
2404,126,126,132,128,123,127,127,127,0
2408,128,129,129,127,129,129,127,127,0
2411,127,128,129,127,128,129,127,128,0
2414,127,128,131,129,125,128,123,126,0
2417,130,127,128,131,128,128,123,127,0
2420,127,129,128,128,130,129,129,127,0
2423,128,129,124,127,128,128,130,128,0
2426,127,127,126,127,127,124,127,128,0
2429,127,128,126,127,129,127,127,128,0
2432,131,129,124,125,126,129,127,127,0
2435,128,129,124,127,128,128,128,128,0
2438,127,128,124,128,128,125,127,128,0
2441,124,125,124,128,127,127,127,128,0
2446,128,128,126,128,127,129,128,127,0
2450,129,128,125,127,129,130,128,128,0
2454,128,127,126,129,126,127,122,126,0
2457,130,127,127,131,127,128,123,126,0
2460,131,126,127,129,129,130,128,128,0
2464,130,128,128,126,126,129,129,128,0
2468,129,128,129,127,126,126,129,127,0
2471,126,126,131,127,128,127,130,128,0
2474,128,127,131,125,129,129,130,128,0
2477,128,128,131,128,128,129,129,128,0
2480,127,127,130,126,128,126,128,126,0
2483,130,127,130,130,128,128,125,126,0
2486,130,127,133,128,130,130,130,128,0
2490,126,128,130,126,130,129,130,128,0
2493,127,127,130,125,128,127,130,128,0
2496,126,126,131,127,128,126,130,127,0
2499,126,128,128,126,128,128,128,128,0
2502,128,128,127,128,127,129,130,128,0
2506,127,128,127,128,129,128,131,128,0
2510,126,127,128,128,127,128,124,125,0
2515,130,127,125,131,126,127,129,127,0
2519,128,128,128,128,128,129,129,129,0
2522,127,128,125,125,128,128,128,127,0
2525,127,125,128,125,126,126,128,128,0
2528,130,128,127,127,128,128,128,127,0
2531,128,128,126,128,128,128,128,128,0
2535,127,127,125,127,127,127,127,128,0
2540,127,125,126,130,127,126,124,126,0
2545,129,127,127,130,126,127,126,128,0
2548,128,129,126,128,129,130,126,128,0
2552,128,128,127,127,126,128,128,128,0
2555,126,128,126,125,128,126,126,127,0
2557,126,128,126,128,128,129,127,128,0
2560,128,129,125,129,128,127,127,128,0
2563,127,129,125,127,127,128,128,128,0
2567,126,127,128,130,126,127,122,126,0
2570,130,127,125,131,126,126,126,129,0
2573,127,128,125,127,126,128,128,128,0
2577,128,129,127,127,126,126,128,128,0
2580,127,128,127,126,126,124,129,127,0
2583,127,128,128,127,127,126,128,127,0
2587,127,128,127,128,126,128,128,128,0
2590,127,128,127,128,127,128,129,128,0
2595,126,127,128,130,126,127,124,126,0
2599,128,127,127,130,127,127,124,125,0
2601,129,129,129,127,126,130,129,128,0
2605,126,128,129,128,126,127,129,128,0
2608,126,128,129,126,126,125,129,127,0
2611,127,127,130,125,127,128,128,127,0
2613,127,127,128,127,127,129,128,129,0
2618,127,128,128,127,128,127,127,127,0
2621,127,127,129,127,124,126,123,126,0
2624,129,127,127,130,129,128,123,126,0
2628,129,125,129,127,128,129,128,127,0
2632,128,128,128,126,129,128,129,128,0
2638,127,128,128,125,129,126,129,127,0
2642,126,128,128,126,128,127,130,129,0
2645,127,128,126,128,129,128,129,128,0
2648,127,128,126,127,127,128,129,128,0
2654,127,128,127,127,129,125,128,127,0
2659,129,127,126,130,129,128,124,126,0
2662,129,127,125,126,129,129,129,128,0
2665,127,128,124,125,129,128,129,128,0
2668,126,128,125,125,129,126,129,128,0
2672,126,126,126,126,128,127,128,127,0
2674,127,127,124,126,128,128,127,127,0
2677,127,128,124,128,127,128,127,128,0
2681,128,128,125,127,124,126,127,126,0
2685,130,126,126,130,127,127,122,125,0
2688,129,127,125,128,128,129,127,127,0
2691,128,128,124,127,127,129,128,128,0
2693,127,127,126,125,128,127,127,128,0
2697,127,127,127,125,126,127,127,127,0
2700,127,128,127,127,127,128,127,128,0
2705,128,127,127,128,127,129,127,128,0
2709,127,127,129,127,123,126,127,127,0
2713,127,127,131,127,127,126,123,126,0
2717,129,127,131,131,125,126,127,127,0
2721,128,128,132,128,128,128,128,128,0
2724,128,128,131,127,129,127,129,128,0
2729,127,127,133,127,126,126,129,127,0
2734,127,127,133,128,129,128,128,128,0
2738,127,128,132,128,128,127,128,128,0
2741,127,128,132,127,127,124,127,127,0
2744,127,127,136,130,127,128,124,126,0
2748,130,127,132,130,127,125,130,128,0
2752,128,128,130,127,128,127,129,127,0
2755,128,128,129,127,128,127,129,127,0
2758,127,128,130,125,128,124,128,128,0
2762,127,128,128,126,129,128,129,129,0
2765,127,129,126,128,128,129,128,128,0
2768,127,128,124,127,126,127,128,128,0
2772,128,127,125,131,128,127,122,126,0
2778,128,128,121,125,128,130,127,128,0
2775,130,126,124,130,127,126,124,125,0
2781,127,129,120,125,128,129,128,128,0
2784,127,128,121,125,125,127,129,127,0
2788,126,128,120,125,129,129,128,128,0
2791,128,128,121,129,128,128,128,128,0
2795,127,128,119,127,130,129,129,127,0
2798,126,125,123,131,128,128,124,126,0
2801,129,126,123,130,128,129,124,127,0
2805,126,128,122,126,129,129,131,128,0
2808,127,128,123,127,128,128,131,128,0
2811,129,128,127,127,129,127,130,128,0
2814,126,126,127,128,129,127,130,128,0
2817,126,128,128,128,129,129,131,128,0
2822,128,129,128,127,128,127,131,128,0
2826,126,127,130,127,127,126,130,127,0
2834,126,127,131,131,128,128,124,126,0
2837,129,126,129,127,129,129,130,128,0
2840,126,128,131,128,129,129,130,128,0
2843,126,127,128,128,126,127,130,128,0
2846,125,127,132,128,130,128,129,127,0
2849,128,128,130,129,127,129,129,128,0
2852,127,129,129,128,128,128,128,128,0
2855,126,127,130,127,123,128,122,126,0
2858,130,127,130,130,127,128,122,126,0
2861,127,129,132,129,128,130,129,127,0
2863,127,129,129,128,127,129,128,128,0
2867,127,128,129,125,127,127,127,128,0
2870,127,127,130,127,126,127,127,127,0
2874,128,128,129,128,126,128,126,128,0
2878,128,128,129,127,126,128,127,128,0
2882,128,128,128,127,122,126,127,128,0
2885,127,128,129,126,127,126,127,128,0
2888,127,128,127,129,127,127,127,128,0
2891,128,128,126,128,127,127,127,128,0
2894,128,128,127,127,123,125,125,126,0
2898,131,127,126,130,127,127,123,126,0
2903,130,127,125,129,122,128,127,128,0
2906,127,128,124,127,127,127,128,128,0
2910,128,128,124,125,127,126,128,128,0
2915,126,128,124,125,128,123,128,128,0
2920,127,128,123,127,128,128,127,128,0
2924,128,128,123,128,129,128,128,128,0
2927,127,128,121,125,124,124,126,127,0
2929,128,126,126,130,129,128,123,127,0
2932,130,126,125,131,127,126,129,128,0
2935,128,128,123,127,128,130,129,128,0
2938,126,128,124,128,129,128,131,128,0
2940,125,127,126,125,126,126,128,128,0
2943,127,128,126,126,129,127,128,128,0
2947,127,128,130,128,129,129,128,128,0
2950,126,127,130,126,129,128,129,127,0
2953,126,127,132,126,123,127,123,126,0
2956,129,127,132,131,127,126,125,127,0
2959,127,128,131,129,129,129,130,128,0
2962,126,128,131,128,128,128,130,128,0
2965,127,126,133,126,127,126,129,128,0
2968,127,128,131,128,129,128,128,127,0
2972,127,128,130,129,128,129,128,127,0
2976,127,128,130,128,128,127,130,128,0
2979,125,127,129,126,125,125,128,128,0
2982,127,127,129,127,129,129,128,127,0
2986,129,127,129,129,128,129,127,127,0
2989,127,127,127,129,126,127,127,125,0
2992,131,127,128,131,127,129,124,126,0
2995,131,127,128,130,128,129,125,127,0
3000,127,128,127,128,129,130,130,128,0
3006,128,129,125,127,128,129,129,128,0
3010,126,128,124,127,130,127,129,128,0
3013,126,128,126,125,129,129,128,128,0
3015,127,128,125,128,127,129,129,128,0
3019,127,128,125,127,129,128,128,128,0
3023,127,127,125,128,126,128,122,126,0
3026,131,127,126,130,127,129,123,126,0
3029,125,128,123,126,129,130,129,128,0
3033,128,129,124,127,128,128,129,128,0
3038,127,128,124,127,128,127,129,128,0
3042,126,128,125,126,128,128,129,128,0
3045,127,128,125,128,127,129,128,128,0
3048,127,128,127,128,127,127,128,128,0
3051,127,128,126,126,127,127,129,128,0
3054,127,127,128,126,122,126,125,126,0
3058,128,126,128,128,129,128,128,128,0
3061,127,127,129,128,127,128,129,128,0
3064,126,128,130,127,127,127,129,128,0
3068,126,127,131,127,127,128,128,128,0
3071,128,128,131,129,128,129,128,128,0
3075,128,128,130,127,127,127,129,128,0
3077,128,128,133,131,127,126,123,126,0
3081,129,127,131,130,127,127,124,126,0
3083,129,127,134,125,128,128,129,127,0
3087,126,128,130,127,129,128,130,129,0
3092,127,128,131,125,128,126,131,128,0
3097,129,126,132,125,127,127,129,128,0
3101,127,128,129,127,129,128,129,127,0
3104,129,128,129,128,129,128,128,128,0
3108,127,127,129,127,125,126,125,127,0
3111,128,128,128,130,127,127,123,126,0
3115,130,127,128,130,123,129,127,128,0
3118,128,128,127,128,128,128,128,127,0
3121,128,127,128,126,128,126,128,128,0
3124,126,127,126,128,129,127,128,128,0
3131,128,128,125,129,127,128,127,128,0
3127,127,127,125,127,127,127,128,128,0
3134,128,128,124,128,125,126,127,128,0
3139,127,127,124,126,127,126,127,128,0
3142,127,127,124,128,126,128,125,128,0
3145,128,128,124,128,126,128,127,128,0
3149,128,127,124,128,126,126,125,126,0
3152,129,126,125,131,127,127,123,126,0
3156,129,126,125,131,127,126,128,128,0
3159,128,128,126,128,129,129,129,128,0
3162,127,128,126,128,128,127,129,128,0
3166,128,125,129,129,126,127,125,128,0
3169,127,127,128,129,127,128,127,129,0
3172,127,128,129,126,129,130,129,128,0
3174,127,128,129,126,130,128,130,128,0
3178,126,126,133,127,128,126,129,128,0
3184,125,128,133,125,128,128,129,127,0
3190,128,128,130,127,127,128,129,128,0
3194,128,128,132,128,128,127,129,128,0
3198,126,128,133,126,125,125,129,127,0
3202,130,127,131,131,128,128,124,127,0
3205,127,128,130,128,129,130,130,128,0
3208,127,128,130,126,127,128,129,128,0
3211,126,128,130,127,126,126,128,127,0
3214,131,127,129,131,127,128,125,127,0
3218,126,129,130,129,128,129,128,128,0
3222,128,128,128,126,128,127,128,128,0
3225,127,127,127,127,128,126,129,128,0
3229,127,126,128,125,128,129,128,129,0
3233,128,128,126,129,129,129,128,128,0
3236,128,128,125,128,128,129,128,128,0
3239,127,128,126,126,127,127,129,128,0
3241,127,127,126,126,128,129,128,127,0
3246,128,128,125,128,128,129,128,128,0
3249,128,128,124,128,128,128,128,128,0
3253,128,126,125,129,128,127,123,125,0
3257,131,127,124,130,129,128,123,126,0
3260,131,127,124,128,130,130,128,128,0
3263,128,128,127,126,128,128,129,128,0
3267,127,128,125,127,126,126,129,128,0
3270,127,128,125,125,130,128,129,128,0
3273,127,128,124,128,129,129,128,127,0
3278,129,128,125,126,129,129,128,128,0
3282,127,128,125,126,127,127,128,129,0
3286,126,128,125,130,128,128,123,126,0
3289,130,126,125,128,129,130,129,128,0
3292,127,128,125,129,128,128,129,128,0
3296,126,128,125,126,128,127,129,127,0
3299,126,128,128,126,129,127,128,128,0
3303,127,128,129,129,128,128,128,127,0
3307,127,128,130,128,126,129,127,127,0
3311,127,127,131,127,125,125,124,125,0
3314,129,126,130,129,127,127,123,125,0
3318,129,127,131,127,128,128,129,127,0
3321,127,129,130,128,128,128,129,128,0
3323,127,128,130,125,128,126,128,127,0
3327,126,128,132,126,127,126,127,127,0
3331,127,128,129,128,126,128,128,128,0
3336,127,127,128,129,127,128,127,128,0
3339,125,128,128,125,127,127,129,128,0
3342,126,126,128,126,121,126,123,127,0
3347,129,127,128,130,123,126,128,127,0
3350,127,128,127,129,128,127,127,128,0
3354,127,128,126,128,126,127,128,127,0
3358,127,127,127,128,128,126,129,128,0
3362,126,128,124,129,127,127,128,127,0
3364,127,128,125,128,127,128,128,128,0
3367,128,129,125,127,126,126,126,127,0
3372,130,126,126,130,127,127,123,125,0
3386,130,126,125,128,123,128,129,128,0
3391,127,128,124,128,128,128,129,127,0
3394,126,128,124,127,128,127,130,127,0
3398,126,128,122,125,127,125,129,128,0
3401,127,128,124,127,128,128,128,127,0
3405,126,128,124,127,128,128,127,127,0
3408,126,128,124,128,129,128,128,125,0
3411,130,128,125,130,127,127,123,126,0
3415,130,127,126,129,126,125,129,127,0
3418,127,129,125,126,130,129,129,128,0
3421,128,129,124,127,128,128,129,128,0
3425,127,128,125,124,127,126,128,127,0
3428,127,128,128,127,128,128,129,128,0
3431,127,128,126,128,129,127,128,128,0
3434,128,128,128,128,128,126,129,128,0
3437,126,128,125,125,124,124,122,126,0
3440,130,127,128,130,129,126,124,126,0
3443,129,127,127,128,128,129,128,128,0
3446,128,128,126,126,128,128,129,128,0
3450,127,127,127,125,127,125,129,128,0
3452,126,127,128,126,128,128,129,128,0
3455,128,128,129,128,128,130,129,128,0
3458,127,128,129,127,129,129,130,128,0
3461,126,127,131,131,128,128,124,126,0
3465,129,126,131,130,128,128,125,128,0
3472,128,127,127,127,129,130,130,128,0
3475,128,128,127,126,129,129,130,128,0
3478,126,128,125,124,129,127,130,128,0
3482,124,126,127,125,127,127,129,128,0
3485,126,128,125,126,129,130,129,128,0
3487,128,128,127,128,128,129,129,128,0
3490,127,127,125,126,127,124,126,127,0
3493,128,127,127,130,125,126,125,127,0
3497,128,125,129,126,127,129,128,128,0
3500,128,128,126,128,127,128,128,128,0
3503,127,128,127,126,128,127,128,129,0
3507,126,127,127,126,125,126,128,128,0
3511,127,128,128,128,126,129,127,127,0
3514,127,128,129,128,127,128,128,128,0
3517,128,127,130,126,122,125,122,126,0
3521,131,127,129,130,128,127,123,127,0
3523,130,127,129,128,128,128,128,128,0
3527,128,128,129,127,127,129,129,127,0
3529,128,128,129,125,127,126,128,128,0
3532,127,127,127,125,127,126,128,128,0
3535,127,128,128,129,128,127,128,128,0
3538,127,128,128,130,128,128,128,128,0
3541,128,127,129,126,128,126,129,127,0
3549,131,126,129,132,127,127,124,126,0
3555,130,127,129,128,128,129,130,128,0
3561,127,129,128,129,129,129,130,128,0
3566,127,128,127,126,127,127,130,128,0
3571,127,127,129,126,126,126,129,127,0
3575,126,128,129,127,128,128,128,127,0
3578,128,128,129,129,126,127,127,128,0
3581,128,127,129,128,126,126,126,127,0
3585,127,126,128,131,128,128,123,126,0
3588,129,126,129,129,125,125,128,128,0
3591,128,128,130,128,128,129,127,128,0
3594,127,128,129,126,126,125,127,128,0
3597,126,125,130,129,127,128,122,127,0
3600,130,127,130,130,128,124,130,129,0
3602,127,128,130,125,129,129,128,128,0
3605,127,128,131,127,129,128,129,128,0
3608,126,126,132,127,128,126,129,129,0
3612,127,128,132,126,130,128,128,128,0
3621,128,128,129,127,129,129,129,128,0
3625,127,128,128,126,128,128,129,128,0
3628,127,127,130,131,128,128,124,125,0
3632,131,126,130,131,126,125,129,128,0
3635,127,128,129,129,129,131,131,129,0
3639,128,129,128,129,127,128,130,127,0
3643,125,128,129,125,126,126,129,128,0
3646,127,128,130,124,128,127,129,128,0
3649,129,128,127,127,129,129,129,128,0
3654,128,128,127,128,126,128,127,128,0
3660,128,127,127,126,127,125,127,128,0
3664,126,128,127,129,126,127,123,126,0
3667,131,127,127,128,128,129,128,128,0
3670,128,129,127,128,128,127,129,128,0
3673,130,128,128,126,125,126,129,128,0
3677,126,127,126,130,128,128,124,126,0
3680,131,128,127,128,129,129,129,127,0
3683,128,128,129,128,128,128,129,128,0
3686,127,128,129,128,123,126,128,128,0
3690,127,127,131,126,128,127,129,128,0
3693,127,128,130,126,128,130,129,127,0
3696,126,128,129,126,128,129,129,128,0
3708,127,127,130,127,124,125,127,127,0
3711,128,126,131,131,128,128,124,125,0
3715,131,127,129,128,129,129,130,128,0
3719,128,127,128,126,128,128,129,127,0
3722,127,128,130,127,128,126,128,128,0
3725,127,126,132,125,128,126,128,127,0
3729,127,127,128,127,127,129,129,127,0
3732,128,128,129,128,128,129,128,128,0
3735,126,127,127,126,127,124,124,125,0
3738,131,127,129,130,128,127,122,126,0
3742,131,127,130,125,129,128,127,127,0
3747,128,128,128,127,128,128,128,128,0
3756,128,128,129,127,129,126,127,128,0
3765,126,126,128,125,128,126,128,128,0
3769,127,128,125,126,128,128,127,128,0
3772,128,128,123,128,127,127,127,127,0
3776,127,129,123,128,128,125,126,128,0
3779,126,126,125,128,127,128,121,125,0
3782,130,128,122,129,128,129,126,127,0
3786,129,128,122,128,127,129,126,128,0
3790,128,128,122,125,126,128,127,128,0
3798,126,127,122,125,126,126,127,128,0
3802,127,127,122,127,127,128,126,128,0
3807,128,128,123,128,126,128,128,127,0
3810,127,127,122,128,126,127,127,127,0
3814,127,128,125,128,126,125,127,127,0
3818,127,128,126,128,127,128,127,127,0
3821,128,128,125,128,128,129,128,128,0
3825,126,127,126,127,127,126,125,126,0
3828,129,126,128,130,128,128,125,126,0
3831,130,127,130,131,128,126,130,128,0
3834,128,128,131,128,129,130,131,128,0
3838,127,128,131,127,127,129,131,128,0
3841,126,127,132,126,129,128,132,128,0
3844,127,127,132,128,130,127,130,128,0
3849,127,128,132,128,130,128,131,128,0
3853,126,128,132,128,128,127,131,128,0
3860,126,126,133,127,129,128,131,128,0
3866,126,128,133,128,128,127,132,127,0
3872,128,128,131,128,130,128,130,127,0
3876,127,128,131,127,128,127,130,127,0
3880,126,127,130,127,124,125,123,126,0
3883,129,127,129,130,127,129,123,126,0
3887,131,126,129,127,128,131,129,128,0
3890,128,129,127,127,127,129,128,128,0
3894,127,127,125,126,126,126,127,127,0
3897,127,127,126,125,129,129,128,128,0
3901,127,128,125,128,128,129,127,128,0
3905,127,128,122,127,127,128,128,129,0
3908,126,127,123,127,126,125,126,128,0
3937,128,126,122,130,127,127,121,126,0
3944,131,127,122,127,128,129,128,128,0
3949,128,129,121,127,127,128,128,129,0
3955,126,127,122,127,127,125,122,126,0
3960,131,127,123,130,128,127,123,127,0
3965,128,127,121,126,130,130,128,128,0
3968,128,128,121,127,128,129,128,128,0
3971,126,128,121,125,128,127,128,129,0
3975,127,127,123,125,128,127,128,129,0
3980,127,128,122,128,128,127,128,128,0
3985,127,128,122,129,129,128,128,129,0
3990,126,128,126,126,126,123,122,128,0
3994,130,126,127,130,128,127,123,126,0
3997,129,126,126,126,129,129,130,129,0
4000,128,129,127,127,128,128,128,129,0
4003,127,128,129,127,128,124,127,128,0
4007,126,127,131,127,123,126,128,128,0
4011,127,128,129,126,129,128,127,128,0
4014,127,128,132,126,128,128,128,128,0
4017,127,127,131,128,124,124,126,127,0
4021,130,126,132,130,127,127,122,126,0
4024,130,127,131,125,128,128,128,128,0
4027,130,128,133,126,127,129,128,128,0
4031,127,129,130,125,127,126,127,128,0
4034,126,128,133,127,124,126,128,128,0
4037,127,128,129,126,126,128,127,127,0
4041,128,128,127,128,126,128,128,128,0
4045,127,128,126,127,127,127,128,127,0
4048,125,127,127,126,126,125,128,128,0
4051,128,127,127,129,127,128,127,127,0
4054,128,128,124,130,127,129,128,128,0
4058,128,128,124,126,125,125,127,126,0
4061,130,126,125,130,127,127,124,127,0
4064,130,126,125,132,128,126,129,129,0
4067,127,128,122,126,129,129,130,129,0
4072,127,128,122,125,128,127,130,129,0
4076,126,128,125,127,127,124,129,128,0
4080,127,128,126,126,129,129,130,129,0
4082,128,129,124,127,129,129,130,128,0
4085,127,128,126,126,128,126,129,128,0
4088,126,127,129,130,129,128,125,126,0
4091,130,127,129,131,130,126,129,127,0
4094,129,129,130,128,130,130,130,128,0
4098,126,128,127,127,126,128,129,127,0
4101,127,128,131,127,127,127,129,127,0
4104,126,128,130,128,129,129,128,128,0
4107,128,128,131,129,129,129,129,127,0
4111,128,128,131,128,128,128,128,127,0
4114,127,126,131,131,128,128,122,126,0
4117,130,127,132,131,128,127,127,127,0
4121,128,126,133,129,131,130,128,127,0
4125,127,129,131,126,128,128,128,127,0
4128,127,128,133,127,127,126,127,128,0
4135,126,128,131,127,131,127,126,128,0
4139,127,128,129,126,128,127,127,127,0
4142,128,128,130,127,127,126,127,127,0
4147,129,127,130,126,127,126,127,127,0
4149,127,128,129,130,124,127,127,127,0
4152,127,127,126,129,127,128,126,127,0
4158,128,127,125,129,126,127,128,127,0
4163,127,128,126,127,126,125,121,126,0
4168,129,126,124,132,129,127,122,126,0
4172,129,125,123,128,130,129,128,127,0
4176,126,127,120,128,129,128,129,128,0
4182,126,125,124,128,127,125,128,127,0
4186,126,125,123,127,125,127,128,127,0
4189,127,127,124,127,128,128,128,127,0
4193,127,128,124,126,129,129,128,128,0
4196,127,128,124,125,128,126,128,127,0
4200,128,127,127,131,130,128,124,126,0
4204,130,127,128,127,132,129,129,129,0
4207,128,128,129,126,127,129,129,127,0
4210,126,128,127,127,128,127,128,127,0
4214,127,127,131,125,127,126,128,128,0
4217,128,128,131,128,127,128,129,128,0
4220,127,128,131,127,127,128,129,127,0
4223,127,128,131,125,127,127,127,127,0
4227,127,128,130,130,127,127,123,126,0
4230,130,127,131,128,129,128,128,128,0
4232,128,129,130,128,127,128,129,128,0
4235,127,128,130,124,126,127,129,128,0
4238,127,129,132,125,127,128,129,128,0
4241,128,128,130,126,128,128,127,127,0
4252,128,129,130,128,126,128,129,128,0
4256,127,128,129,128,128,127,129,128,0
4259,127,127,127,130,126,127,123,126,0
4262,130,127,127,130,122,128,131,128,0
4265,127,128,126,126,127,128,129,128,0
4268,128,128,125,125,127,127,129,127,0
4271,127,127,127,126,126,127,128,127,0
4275,129,128,123,126,129,129,127,127,0
4332,128,128,122,128,129,129,129,128,0
4342,128,127,123,126,128,127,128,128,0
4347,128,126,124,130,127,127,122,126,0
4351,131,126,123,130,125,126,126,128,0
4355,128,128,123,128,129,129,128,127,0
4398,128,128,121,125,128,129,129,128,0
4410,126,127,123,125,128,128,129,128,0
4419,126,127,122,128,128,128,128,128,0
4426,127,128,125,127,127,130,128,128,0
4431,127,128,123,127,128,127,129,128,0
4463,126,127,125,126,127,125,128,126,0
4481,130,126,127,131,129,129,124,127,0
4488,128,128,126,127,128,129,129,128,0
4535,127,128,127,125,128,129,130,128,0
4564,127,128,129,126,126,127,128,128,0
4553,126,128,130,126,126,126,129,127,0
4569,128,128,130,129,127,129,129,128,0
4574,127,128,132,128,127,127,129,128,0
4579,126,127,133,130,127,127,123,126,0
4583,130,126,134,131,127,126,127,128,0
4587,128,128,134,128,129,129,129,128,0
4590,126,128,134,126,128,128,128,128,0
4594,127,128,134,126,127,125,128,128,0
4597,127,128,137,126,128,128,128,128,0
4600,127,128,134,128,127,128,127,128,0
4604,127,128,132,128,126,128,128,129,0
4607,127,127,132,125,126,122,125,127,0
4611,129,127,130,130,127,127,122,127,0
4614,127,128,130,126,128,128,127,129,0
4617,126,128,126,127,126,127,128,129,0
4621,127,128,126,127,124,126,127,128,0
4624,127,127,125,128,124,127,127,128,0
4628,128,128,124,128,126,128,126,128,0
4630,128,129,122,127,125,128,127,128,0
4633,127,128,122,127,124,124,125,127,0
4637,129,126,121,131,127,128,122,127,0
4641,131,127,120,128,129,129,130,128,0
4644,128,128,119,126,127,128,128,129,0
4646,127,127,119,126,128,127,128,129,0
4649,126,127,120,128,125,127,124,126,0
4655,129,127,123,128,130,130,130,128,0
4661,127,128,123,128,129,128,130,128,0
4666,127,128,123,125,129,128,130,129,0
4669,125,128,125,125,130,127,131,129,0
4672,126,128,126,127,130,128,130,128,0
4674,127,128,130,129,130,128,131,128,0
4678,126,128,130,130,129,127,126,126,0
4681,129,127,131,129,130,127,126,126,0
4684,130,127,130,126,131,128,132,128,0
4688,130,129,129,125,130,128,133,128,0
4690,125,128,132,127,130,127,131,127,0
4695,126,126,133,127,127,126,132,128,0
4698,127,128,133,125,125,128,130,127,0
4701,128,128,133,126,130,129,129,128,0
4703,128,128,134,126,128,125,125,126,0
4707,131,127,135,130,128,128,124,126,0
4736,130,127,134,129,123,129,129,127,0
4742,128,128,136,128,128,129,127,128,0
4746,128,128,135,128,127,128,127,127,0
4806,126,128,133,127,127,126,126,128,0
4817,125,128,131,127,128,128,125,127,0
4825,128,129,128,126,127,128,126,128,0
4838,128,128,129,128,126,126,125,127,0
4843,129,126,126,131,127,128,121,126,0
4847,130,126,125,129,123,127,127,127,0
4850,128,129,123,126,126,128,126,128,0
4854,127,128,124,127,124,127,129,128,0
4857,126,126,123,127,126,126,126,127,0
4860,127,126,121,125,127,126,126,128,0
4863,128,128,120,128,126,128,126,128,0
4867,127,128,119,126,126,127,126,128,0
4870,127,128,120,128,123,125,124,127,0
4873,128,128,122,130,127,126,124,128,0
4877,128,128,120,127,129,128,128,129,0
4880,127,128,121,129,128,126,129,128,0
4883,126,128,125,126,128,126,129,128,0
4887,126,128,124,126,128,128,128,128,0
4890,127,128,127,128,128,128,128,127,0
4893,128,128,128,128,128,128,129,128,0
4897,126,127,131,130,128,129,124,126,0
4900,129,126,131,131,128,128,127,128,0
4903,126,128,132,128,131,130,130,127,0
4907,128,128,134,127,129,130,130,128,0
4911,126,128,134,125,128,127,130,128,0
4915,127,128,135,125,129,129,130,127,0
4918,127,128,133,129,129,130,129,127,0
4923,129,128,133,128,128,128,129,127,0
4928,126,128,135,126,126,125,125,126,0
4932,130,126,133,131,130,128,125,126,0
4935,124,128,132,127,130,129,131,127,0
4938,123,128,131,126,129,128,131,128,0
4941,123,128,130,125,129,127,129,128,0
4944,124,127,129,126,129,127,130,127,0
4949,127,128,127,128,129,129,129,128,0
4952,127,128,126,128,127,128,129,128,0
4954,128,128,126,127,126,127,129,128,0
4957,128,127,124,127,126,127,128,127,0
4960,129,128,123,128,127,128,127,128,0
4963,129,128,122,128,127,129,127,128,0
4966,127,127,122,128,124,125,126,128,0
4970,128,127,122,126,127,127,123,126,0
4973,131,128,121,129,123,129,127,127,0
4977,130,128,119,128,127,130,127,127,0
4980,128,128,119,127,125,127,126,127,0
5008,130,127,121,130,128,127,123,126,0
5019,130,124,121,125,130,129,129,128,0
5027,129,127,123,128,128,129,129,128,0
5033,128,128,123,126,128,127,128,128,0
5039,127,128,125,127,127,127,128,128,0
5078,127,127,126,128,128,128,128,127,0
5093,128,128,129,127,127,127,127,128,0
5104,128,128,130,128,127,126,128,128,0
5110,126,127,131,127,123,126,128,128,0
5118,127,129,132,128,128,127,128,128,0
5124,127,129,131,128,127,128,128,128,0
5129,127,127,133,127,126,124,127,125,0
5133,130,127,133,130,128,127,124,127,0
5136,129,127,132,130,125,126,129,127,0
5140,128,128,131,127,128,128,129,128,0
5144,126,127,132,127,129,127,129,128,0
5147,126,126,131,130,128,127,123,126,0
5150,130,126,130,128,130,128,129,127,0
5153,126,128,130,128,130,129,130,128,0
5157,125,127,130,127,126,127,129,128,0
5160,125,127,130,126,126,125,129,128,0
5164,126,128,128,126,128,127,126,127,0
5168,126,128,127,128,126,128,127,128,0
5171,127,128,126,128,127,126,127,127,0
5175,128,127,126,130,126,127,122,126,0
5178,130,126,126,130,127,123,129,128,0
5181,127,128,126,128,129,128,129,128,0
5183,127,127,125,128,127,127,129,128,0
5186,127,127,126,125,127,125,128,128,0
5190,127,127,126,128,127,128,128,128,0
5195,127,128,126,128,127,129,128,128,0
5199,127,128,126,128,128,127,128,128,0
5202,127,127,127,125,129,125,128,128,0
5205,127,127,127,127,129,128,128,128,0
5208,128,128,126,127,128,129,127,128,0
5211,128,128,126,128,129,127,126,126,0
5217,131,127,127,130,129,128,123,126,0
5213,129,126,126,130,129,127,124,126,0
5220,129,127,126,127,133,130,130,128,0
5224,127,128,126,125,129,128,130,128,0
5227,129,128,129,124,128,126,129,128,0
5230,128,128,130,127,129,128,129,128,0
5233,127,128,127,128,128,129,128,128,0
5237,127,128,127,127,128,128,128,128,0
5240,126,128,130,128,124,125,128,128,0
5242,127,127,128,131,127,129,122,127,0
5245,130,127,129,129,128,129,128,128,0
5248,127,128,126,127,127,128,128,129,0
5251,126,128,127,128,127,126,129,128,0
5253,127,128,127,128,128,126,128,128,0
5257,127,128,126,127,127,128,128,128,0
5260,127,128,125,127,127,129,129,128,0
5263,127,128,125,127,124,129,124,126,0
5267,129,126,125,131,127,129,123,126,0
5271,129,127,125,128,130,132,130,128,0
5277,128,128,122,129,129,132,131,128,0
5280,126,128,123,125,126,127,131,129,0
5284,127,126,127,128,129,129,131,128,0
5287,128,128,124,127,128,130,130,127,0
5290,128,128,126,129,128,129,130,128,0
5293,127,128,128,126,128,126,130,128,0
5296,128,126,129,132,129,129,125,126,0
5299,131,128,131,127,129,128,129,128,0
5301,127,129,130,127,129,129,130,128,0
5304,127,128,131,128,128,126,129,128,0
5308,127,128,133,128,128,127,132,128,0
5311,127,128,131,126,129,128,130,128,0
5315,127,128,131,129,128,127,129,128,0
5318,128,128,130,127,126,125,128,127,0
5321,127,126,129,130,129,128,124,125,0
5324,130,127,129,128,132,128,129,127,0
5328,128,129,129,128,131,129,128,129,0
5331,128,128,129,125,128,128,128,128,0
5334,126,127,130,127,128,127,128,128,0
5338,127,128,129,128,129,128,126,128,0
5341,127,127,127,128,128,127,126,128,0
5345,127,127,127,127,128,127,127,128,0
5349,126,126,125,130,126,127,122,126,0
5353,129,126,125,128,126,129,126,128,0
5360,128,128,124,127,129,128,127,128,0
5365,128,127,124,126,128,126,126,128,0
5368,126,127,123,125,127,125,126,128,0
5371,127,126,122,127,126,127,126,128,0
5374,127,127,124,128,128,128,126,128,0
5378,127,129,124,128,127,126,126,128,0
5382,126,128,125,127,124,125,123,126,0
5385,131,126,126,130,127,127,124,128,0
5388,126,128,127,127,129,127,127,128,0
5393,126,129,128,125,126,127,128,129,0
5396,126,128,130,125,126,124,128,128,0
5398,126,128,131,125,128,127,127,128,0
5401,128,128,132,128,128,128,128,128,0
5405,127,129,130,127,127,127,127,128,0
5408,125,126,133,127,127,126,128,127,0
5411,127,128,132,126,125,129,123,126,0
5414,129,127,131,127,128,130,128,128,0
5418,128,128,130,127,129,130,128,128,0
5421,127,126,132,126,127,127,127,127,0
5425,130,127,128,130,129,130,124,126,0
5428,130,127,130,127,128,130,128,128,0
5431,128,128,127,128,130,130,128,128,0
5435,127,127,128,126,127,126,128,128,0
5441,127,127,128,126,129,129,129,128,0
5448,127,127,127,128,129,130,129,128,0
5451,127,128,125,127,130,129,130,128,0
5454,127,128,126,127,125,125,125,126,0
5457,129,127,126,130,129,129,125,125,0
5460,130,128,125,128,130,129,131,128,0
5463,127,128,123,125,129,129,131,128,0
5466,126,128,125,125,129,127,130,128,0
5469,126,127,125,126,131,124,130,128,0
5473,128,129,125,127,129,127,129,128,0
5477,128,128,125,128,129,128,130,129,0
5481,125,127,125,127,126,125,128,127,0
5484,128,126,124,130,127,128,125,126,0
5487,130,127,124,131,124,130,131,128,0
5491,126,128,122,126,129,130,131,129,0
5495,126,127,123,125,130,126,129,126,0
5498,126,128,125,129,127,127,125,128,0
5501,128,127,125,128,131,132,131,128,0
5504,127,128,123,125,129,131,130,127,0
5507,127,129,125,125,126,127,129,129,0
5510,126,126,127,129,126,126,125,126,0
5513,127,127,128,130,125,125,128,128,0
5517,128,128,128,126,128,129,128,128,0
5523,126,128,129,128,130,127,129,129,0
5531,124,128,130,126,122,128,129,128,0
5534,124,127,129,127,128,129,127,128,0
5538,128,129,131,129,127,128,127,128,0
5541,127,128,130,128,128,126,129,128,0
5545,127,126,132,131,128,126,123,126,0
5549,130,127,133,129,124,128,127,128,0
5552,129,129,131,128,127,128,128,127,0
5556,128,129,133,125,127,126,128,128,0
5559,127,128,132,128,128,125,129,128,0
5562,127,128,131,127,129,126,129,128,0
5565,127,128,130,127,129,128,129,128,0
5568,127,128,129,128,128,127,129,129,0
5571,127,126,130,126,128,125,128,128,0
5573,126,127,128,126,129,127,128,128,0
5577,128,127,128,127,128,130,127,129,0
5580,128,128,126,127,128,128,128,128,0
5583,127,124,126,130,127,129,122,126,0
5587,130,126,125,130,129,128,126,128,0
5591,128,128,125,126,128,130,128,128,0
5595,128,128,125,126,128,128,128,128,0
5598,127,127,125,125,128,128,129,128,0
5601,127,127,126,127,127,128,128,128,0
5605,127,127,125,128,128,129,128,128,0
5609,127,128,127,128,129,127,129,128,0
5614,127,126,128,131,129,127,124,126,0
5618,129,126,129,129,128,128,125,125,0
5621,128,126,129,126,128,129,129,128,0
5624,127,128,129,127,128,127,129,128,0
5627,127,128,132,125,122,122,125,127,0
5631,128,127,130,129,127,126,125,127,0
5634,130,129,130,127,129,128,129,128,0
5637,128,128,130,127,128,127,129,128,0
5640,126,128,129,125,127,125,128,127,0
5642,125,128,130,126,128,127,128,128,0
5645,127,128,128,128,127,128,128,128,0
5648,127,128,125,128,127,127,127,128,0
5651,127,128,126,127,124,125,121,126,0
5655,131,127,125,129,128,127,122,126,0
5658,125,128,125,125,128,128,127,127,0
5661,127,129,125,127,127,128,127,128,0
5664,128,128,126,125,125,127,128,127,0
5668,127,127,125,125,127,126,127,128,0
5671,128,128,126,129,127,128,127,128,0
5674,128,128,125,128,126,129,127,128,0
5681,127,127,126,126,123,124,128,127,0
5685,129,126,128,131,127,128,124,126,0
5692,131,127,128,128,127,129,130,128,0
5696,127,128,126,127,129,130,130,128,0
5699,127,128,127,126,127,127,130,128,0
5702,127,128,128,127,127,125,130,129,0
5705,128,128,127,128,128,127,130,128,0
5708,128,128,128,129,127,129,131,128,0
5711,128,128,128,127,126,126,130,127,0
5714,128,127,128,130,127,127,125,125,0
5717,129,127,129,130,128,126,131,128,0
5720,128,128,129,127,128,129,132,128,0
5723,127,128,128,126,129,128,131,128,0
5727,129,127,130,126,126,128,131,128,0
5729,127,128,129,128,130,129,129,127,0
5733,127,127,129,128,129,129,129,128,0
5736,127,127,130,127,124,127,130,128,0
5738,123,126,131,126,128,127,124,125,0
5741,130,126,130,131,129,128,128,128,0
5746,128,127,131,128,130,130,130,128,0
5750,126,128,131,126,129,128,132,128,0
5753,126,127,132,125,128,127,129,129,0
5756,126,128,132,126,129,128,127,128,0
5760,127,128,131,128,127,128,128,128,0
5763,127,127,130,128,125,124,128,128,0
5767,126,127,131,126,126,125,122,125,0
5773,130,127,130,130,126,126,125,127,0
5779,127,128,131,126,127,128,127,128,0
5782,128,129,128,127,127,127,128,127,0
5785,125,126,128,126,128,123,127,127,0
5787,127,127,127,126,128,128,127,127,0
5791,129,128,125,128,126,127,127,128,0
5794,128,128,125,128,127,126,126,128,0
5798,128,127,125,127,125,125,125,128,0
5801,128,127,124,128,127,127,125,128,0
5804,129,128,124,128,126,128,125,128,0
5808,128,127,123,128,127,128,126,127,0
5812,127,126,126,130,127,126,121,126,0
5817,130,126,124,131,128,128,122,126,0
5821,127,128,124,127,129,128,127,128,0
5824,128,128,124,126,128,128,128,128,0
5831,127,128,126,125,127,127,127,128,0
5828,128,128,125,125,128,125,127,127,0
5834,128,128,127,127,127,128,128,128,0
5839,127,128,127,127,127,128,129,128,0
5843,127,128,127,125,123,127,123,126,0
5847,130,127,128,129,129,127,124,125,0
5850,128,128,127,127,130,128,129,128,0
5855,129,129,128,127,128,128,129,128,0
5861,127,128,127,126,128,126,130,127,0
5865,126,128,128,127,129,129,129,128,0
5869,127,128,127,127,129,127,128,127,0
5872,127,129,126,128,129,127,129,127,0
5875,127,127,128,127,127,123,128,127,0
5879,126,127,128,127,129,127,129,128,0
5882,128,128,126,128,128,129,129,127,0
5885,126,128,127,128,128,129,131,127,0
5889,126,127,128,127,123,129,125,126,0
5893,129,127,127,130,128,128,125,126,0
5896,129,127,126,127,130,131,131,128,0
5899,128,128,126,127,128,129,130,128,0
5903,127,127,127,124,129,129,130,128,0
5906,126,128,128,127,128,128,130,128,0
5909,126,128,127,128,128,129,130,129,0
5913,127,129,126,127,127,129,129,129,0
5916,126,128,126,127,127,127,128,127,0
5919,129,127,127,130,127,127,123,125,0
5923,130,127,126,126,128,129,129,128,0
5926,128,128,127,128,128,128,130,127,0
5929,127,128,127,127,127,127,129,128,0
5933,127,127,127,126,126,128,130,128,0
5939,128,128,128,127,127,128,129,128,0
5943,127,128,127,127,128,129,129,127,0
5947,127,128,126,126,127,126,129,128,0
5950,128,127,129,130,127,128,124,127,0
5953,130,127,127,130,125,127,129,127,0
5957,128,128,128,126,129,129,129,127,0
5960,127,127,128,127,128,128,128,127,0
5964,127,126,128,125,129,128,129,128,0
5969,128,127,129,128,129,129,128,128,0
5973,128,128,128,128,128,128,127,128,0
5976,128,128,129,128,124,128,128,127,0
5979,129,127,129,130,128,128,123,125,0
5983,131,127,130,129,126,126,128,127,0
5986,127,128,129,126,130,129,129,128,0
5989,127,128,128,126,128,127,129,128,0
5992,126,128,128,127,127,127,129,128,0
5995,126,128,128,128,129,127,126,128,0
5999,127,128,127,128,127,127,126,128,0
6002,127,128,126,127,126,125,126,128,0
6006,128,127,126,130,128,127,122,126,0
6009,129,126,126,130,128,127,125,128,0
6013,128,128,125,128,129,129,127,128,0
6016,126,128,123,127,128,127,127,128,0
6021,126,128,125,125,127,128,128,128,0
6027,126,127,125,128,128,128,126,128,0
6030,127,128,125,129,128,127,126,128,0
6032,126,127,126,129,127,127,128,128,0
6035,126,127,127,130,127,126,122,126,0
6038,130,126,129,131,126,125,126,128,0
6041,128,128,127,128,127,128,128,128,0
6044,128,128,128,127,127,128,129,128,0
6047,127,128,129,125,127,125,129,128,0
6050,126,127,129,127,128,128,129,128,0
6053,127,128,129,128,130,128,128,127,0
6057,127,128,129,128,128,128,130,128,0
6060,126,127,129,126,126,124,129,127,0
6062,127,126,128,130,130,129,124,126,0
6065,129,127,129,128,131,129,130,127,0
6068,127,128,129,127,129,130,130,128,0
6071,127,128,131,125,129,123,125,126,0
6073,131,127,130,130,129,128,124,126,0
6078,128,128,129,127,132,130,130,128,0
6082,126,128,129,128,131,129,131,128,0
6085,127,127,131,127,126,125,128,128,0
6088,127,127,130,125,128,127,130,127,0
6091,128,128,130,127,128,129,128,127,0
6095,128,128,129,128,128,128,129,127,0
6101,126,128,131,126,126,126,128,127,0
6107,128,127,128,130,128,128,123,126,0
6111,130,127,129,129,128,129,129,128,0
6114,128,129,130,128,128,129,129,129,0
6117,127,128,129,125,127,125,128,127,0
6121,126,126,130,125,125,126,126,128,0
6123,128,128,127,128,127,126,126,128,0
6127,128,128,126,128,127,127,126,128,0
6130,127,128,125,126,126,124,128,127,0
6134,127,128,126,129,127,127,122,126,0
6139,131,127,124,131,125,125,125,129,0
6142,129,128,123,127,127,129,127,128,0
6145,128,128,122,126,127,127,128,128,0
6148,126,127,123,128,126,126,128,128,0
6151,127,128,120,127,129,128,126,128,0
6154,127,128,123,128,126,129,128,128,0
6158,128,128,122,128,126,128,127,128,0
6161,126,128,124,129,126,128,124,126,0
6164,130,126,127,131,127,128,125,128,0
6168,127,128,126,126,128,130,129,128,0
6172,126,128,127,126,128,129,130,128,0
6178,126,128,126,125,127,127,129,128,0
6182,127,128,129,127,125,128,129,127,0
6190,127,128,129,129,129,129,129,128,0
6194,127,128,129,128,127,127,129,128,0
6198,126,127,131,126,127,126,123,126,0
6201,130,127,131,131,127,128,127,129,0
6203,128,128,130,128,128,130,130,128,0
6207,128,128,131,126,128,129,129,127,0
6211,127,125,135,128,127,128,125,126,0
6214,130,126,132,130,125,127,131,127,0
6217,127,129,135,129,130,129,131,128,0
6220,128,129,131,126,129,128,130,128,0
6223,126,127,133,125,129,127,130,128,0
6226,126,128,131,126,128,128,129,128,0
6231,127,129,129,129,127,128,129,127,0
6234,127,128,129,128,127,128,130,128,0
6238,127,126,128,126,126,126,128,128,0
6241,127,127,131,130,127,128,123,127,0
6245,131,127,129,128,128,129,128,128,0
6248,128,127,126,127,128,129,129,128,0
6251,127,126,126,125,127,127,128,128,0
6254,126,127,124,127,130,128,127,128,0
6257,128,128,123,128,130,128,127,128,0
6262,128,128,122,128,128,127,128,128,0
6266,127,127,123,129,127,127,122,126,0
6271,130,126,123,130,129,128,123,127,0
6274,128,128,122,125,129,129,128,128,0
6277,127,128,124,127,129,128,128,128,0
6280,126,128,124,125,129,127,129,128,0
6284,127,127,126,126,129,127,128,128,0
6287,127,128,125,129,128,127,127,128,0
6290,126,128,126,128,128,128,128,128,0
6293,126,127,128,126,124,127,122,127,0
6296,129,126,128,129,128,127,122,126,0
6299,129,125,131,127,128,128,128,128,0
6303,126,128,129,126,128,127,128,128,0
6306,127,128,132,124,127,123,128,128,0
6310,126,127,130,126,129,126,128,128,0
6312,127,127,131,127,127,127,127,128,0
6315,127,128,132,128,125,126,128,128,0
6318,126,128,133,125,126,125,128,128,0
6321,126,127,133,126,123,125,128,128,0
6324,126,128,130,128,127,128,126,128,0
6327,128,129,130,128,126,128,126,128,0
6330,127,128,130,128,121,124,126,128,0
6334,130,127,129,131,125,128,121,126,0
6341,130,128,127,130,122,129,127,127,0
6345,128,128,126,128,126,128,127,128,0
6348,128,128,124,126,126,126,127,128,0
6351,127,127,124,126,124,128,125,128,0
6354,128,128,124,128,127,129,127,127,0
6358,128,128,121,129,127,129,128,128,0
6361,128,127,123,127,127,126,129,128,0
6364,129,127,121,130,127,128,124,126,0
6367,129,127,122,129,125,129,129,127,0
6370,128,128,122,128,128,129,131,128,0
6373,127,128,122,127,127,128,131,128,0
6376,127,127,123,126,123,127,131,128,0
6379,127,128,124,126,128,128,131,128,0
6383,127,128,128,128,129,129,132,128,0
6387,127,128,127,127,128,127,131,128,0
6390,127,125,130,129,128,127,126,126,0
6394,129,127,130,131,129,127,132,128,0
6399,126,129,129,126,130,130,133,128,0
6402,126,128,130,126,129,129,131,128,0
6405,124,127,130,125,124,126,131,128,0
6408,126,128,129,126,132,130,130,128,0
6413,128,128,130,128,131,129,130,128,0
6419,127,128,129,128,130,129,129,127,0
6422,127,127,129,130,130,129,124,126,0
6425,130,126,129,131,130,129,128,128,0
6428,128,127,129,128,130,130,129,128,0
6434,128,128,130,128,129,128,127,127,0
6440,127,128,129,125,128,127,127,127,0
6445,128,128,129,127,128,128,127,127,0
6448,126,128,130,129,128,129,127,127,0
6451,127,128,130,126,128,127,127,127,0
6454,126,127,128,126,122,125,122,126,0
6458,130,126,128,130,126,127,122,126,0
6461,127,128,126,128,130,128,127,128,0
6463,128,128,125,126,125,126,128,128,0
6467,127,128,128,125,126,126,128,128,0
6470,127,128,125,126,126,126,125,128,0
6473,127,128,124,128,125,128,127,128,0
6476,127,128,123,128,125,127,127,129,0
6479,128,128,121,126,123,126,127,128,0
6482,129,126,124,130,127,127,122,127,0
6485,130,127,123,127,128,129,126,129,0
6488,127,128,121,126,128,129,127,128,0
6491,126,127,124,127,127,127,128,129,0
6495,127,127,124,126,128,127,128,128,0
6501,127,128,127,129,127,128,127,128,0
6505,126,128,128,129,127,128,128,129,0
6507,126,128,129,126,123,125,128,128,0
6511,127,128,130,128,126,125,125,126,0
6514,130,128,131,131,125,125,128,128,0
6517,127,129,130,128,128,128,130,128,0
6521,126,128,130,127,127,126,129,127,0
6527,127,128,132,128,130,128,128,128,0
6524,126,127,132,126,125,125,129,127,0
6530,128,128,130,128,130,128,128,128,0
6534,128,128,130,128,125,125,129,126,0
6538,130,127,130,130,130,127,123,126,0
6541,130,127,131,126,130,129,130,128,0
6544,127,129,129,126,130,129,129,128,0
6548,127,127,129,126,129,127,129,129,0
6551,126,126,129,128,128,127,129,128,0
6555,127,127,129,128,128,128,128,128,0
6558,128,128,128,128,127,128,128,128,0
6561,127,127,127,127,124,126,128,127,0
6564,125,126,128,126,126,127,123,126,0
6567,130,126,128,130,126,125,129,128,0
6571,127,128,127,128,129,128,129,128,0
6577,127,128,128,127,128,127,128,127,0
6581,127,127,128,129,127,127,123,126,0
6584,130,127,128,130,127,127,128,128,0
6587,126,127,126,125,129,129,129,128,0
6590,128,127,128,125,128,127,129,128,0
6593,127,125,130,125,128,127,128,128,0
6596,128,128,130,127,129,128,127,128,0
6598,128,128,127,127,129,129,129,128,0
6601,127,128,128,127,128,128,128,128,0
6604,126,126,128,132,128,128,121,126,0
6608,132,127,129,130,124,128,129,128,0
6611,127,129,129,128,130,130,129,128,0
6614,127,128,129,126,128,127,128,128,0
6618,126,128,128,125,129,128,128,128,0
6621,126,127,129,128,127,127,127,127,0
6623,128,129,128,128,128,129,128,128,0
6628,128,128,128,127,128,127,129,128,0
6631,126,127,126,125,126,126,124,126,0
6634,131,127,128,130,127,127,123,127,0
6637,127,128,127,126,127,129,128,128,0
6639,127,128,126,127,127,129,128,128,0
6644,125,128,127,125,129,127,128,129,0
6652,126,128,127,126,128,128,128,128,0
6655,128,127,126,128,128,129,128,128,0
6658,127,129,127,128,125,127,128,128,0
6661,127,128,126,127,125,124,123,127,0
6664,129,127,125,131,127,126,126,127,0
6667,127,128,126,128,128,128,129,128,0
6670,127,128,125,125,128,128,130,128,0
6672,127,128,125,125,127,127,128,126,0
6675,129,127,127,130,125,128,125,127,0
6678,125,128,126,127,128,129,130,128,0
6681,127,129,127,127,128,128,130,128,0
6684,127,128,126,125,127,126,131,128,0
6687,127,128,127,126,127,127,130,129,0
6691,127,128,126,128,127,129,128,128,0
6694,127,128,127,128,128,129,129,128,0
6697,127,127,128,127,128,125,129,127,0
6700,127,126,129,129,128,129,124,126,0
6703,129,126,129,128,129,129,130,128,0
6707,128,128,127,126,129,130,130,128,0
6710,127,127,129,125,129,127,128,128,0
6713,126,127,129,125,130,128,128,127,0
6719,128,128,129,128,130,129,127,128,0
6724,128,127,130,128,129,129,128,128,0
6728,128,128,131,127,127,127,128,127,0
6732,131,126,130,130,128,128,123,126,0
6735,131,127,129,128,129,130,127,128,0
6739,129,129,130,128,127,128,128,127,0
6742,128,128,129,127,125,127,128,127,0
6746,129,127,131,125,127,128,128,127,0
6749,127,128,127,129,128,128,127,128,0
6752,128,127,127,129,126,128,127,128,0
6755,127,128,127,128,125,124,126,128,0
6758,128,126,127,131,128,127,122,126,0
6760,129,126,127,130,124,128,127,128,0
6763,127,128,126,128,128,127,127,128,0
6767,127,128,126,125,127,126,127,127,0
6771,129,127,125,127,127,127,127,128,0
6774,127,128,126,126,128,128,127,128,0
6777,128,128,125,128,128,128,127,127,0
6780,128,128,125,127,128,124,127,127,0
6783,129,126,124,130,128,126,122,126,0
6786,131,126,126,129,122,129,127,128,0
6789,128,128,124,126,128,129,128,128,0
6794,128,128,125,125,127,128,128,128,0
6798,126,127,124,125,128,126,128,129,0
6801,126,127,124,128,128,127,128,127,0
6804,127,128,127,128,128,129,129,127,0
6807,127,128,124,126,129,127,129,128,0
6810,126,126,129,130,128,128,124,126,0
6813,130,126,128,130,127,125,130,129,0
6819,127,128,128,127,129,129,130,128,0
6822,127,127,129,127,129,128,131,127,0
6826,127,127,131,127,126,124,130,127,0
6829,127,127,131,126,129,129,130,128,0
6831,127,128,131,129,129,128,130,128,0
6834,127,128,131,128,129,128,130,128,0
6838,127,127,132,129,126,126,125,125,0
6840,131,127,132,131,128,127,125,125,0
6845,130,129,131,128,128,128,130,128,0
6848,127,129,130,127,128,128,130,128,0
6851,127,128,129,125,126,125,129,128,0
6853,127,128,128,126,128,128,129,128,0
6858,127,128,128,128,128,128,128,127,0
6861,128,128,126,129,128,129,128,128,0
6865,127,128,126,126,127,127,126,126,0
6871,130,126,126,132,127,128,123,126,0
6875,128,126,125,128,128,130,129,128,0
6878,128,127,126,126,127,129,128,128,0
6881,128,128,125,126,128,128,129,128,0
6886,126,127,125,127,127,126,128,128,0
6890,127,128,126,128,126,129,127,128,0
6893,127,128,126,128,126,128,128,128,0
6896,126,127,128,127,126,126,128,127,0
6899,131,127,129,129,127,127,123,126,0
6902,129,127,128,127,128,129,128,128,0
6905,128,129,127,125,128,128,129,128,0
6909,127,128,129,125,128,124,128,128,0
6911,129,126,129,129,128,126,125,126,0
6915,129,127,129,127,129,128,128,127,0
6918,128,128,129,127,130,129,129,128,0
6922,126,128,127,125,130,128,128,128,0
6925,129,128,128,126,128,128,129,128,0
6928,128,128,128,127,129,130,127,127,0
6931,128,128,128,128,130,129,128,128,0
6934,126,128,127,128,128,126,127,126,0
6937,131,127,127,131,127,127,122,125,0
6941,129,127,127,128,132,129,129,128,0
6947,127,128,127,127,128,128,127,127,0
6952,126,128,126,125,127,127,128,127,0
6959,127,128,127,130,126,125,124,126,0
6964,129,127,127,128,128,128,127,127,0
6968,129,129,126,128,128,129,128,128,0
6971,126,128,126,126,128,128,128,127,0
6974,129,127,126,128,128,127,128,128,0
6978,127,128,126,128,127,127,127,127,0
6981,128,127,126,128,126,129,128,128,0
6985,127,128,126,127,126,126,128,128,0
6989,127,125,127,131,126,127,122,125,0
6991,132,126,127,131,126,126,128,128,0
6994,128,128,127,127,128,129,128,128,0
6998,127,127,126,125,129,128,130,128,0
7001,128,127,125,125,127,126,131,127,0
7004,126,128,127,125,129,129,129,127,0
7007,127,128,126,128,128,129,128,128,0
7010,127,127,126,127,130,128,128,129,0
7012,126,127,128,130,128,128,124,126,0
7016,129,127,127,129,126,127,126,128,0
7021,127,129,128,125,129,129,129,129,0
7026,127,128,129,126,127,127,129,128,0
7031,125,128,126,125,129,126,128,127,0
7035,127,128,128,125,128,127,127,128,0
7038,127,128,128,128,127,128,128,128,0
7042,127,128,128,127,125,127,128,129,0
7046,126,127,128,131,125,127,122,126,0
7050,129,127,129,130,125,125,128,128,0
7052,127,129,127,128,127,129,128,128,0
7055,127,128,126,126,126,128,127,128,0
7058,127,128,125,127,124,127,127,128,0
7061,127,128,124,126,127,128,126,128,0
7064,127,128,126,129,126,127,126,128,0
7068,127,128,125,128,126,127,127,127,0
7071,127,128,123,126,125,124,123,126,0
7075,130,127,125,130,126,127,123,127,0
7078,126,128,123,128,127,129,128,128,0
7081,128,129,124,126,128,128,129,128,0
7084,126,128,123,128,126,126,124,126,0
7087,130,126,124,131,128,126,127,128,0
7090,127,128,123,126,130,130,131,129,0
7094,126,128,123,128,129,129,131,128,0
7099,127,128,124,125,128,128,131,128,0
7106,126,127,124,125,129,129,131,128,0
7109,127,128,125,128,128,131,130,128,0
7113,127,128,127,128,127,128,131,128,0
7117,127,127,127,128,128,127,131,128,0
7120,129,126,127,131,129,129,126,126,0
7123,130,127,127,128,130,130,133,128,0
7126,127,128,128,127,128,128,131,128,0
7129,126,128,128,125,131,127,131,128,0
7132,127,127,129,125,131,127,130,128,0
7135,127,128,130,126,129,128,129,128,0
7138,127,128,131,127,128,128,129,128,0
7141,127,127,130,127,128,125,129,127,0
7145,131,126,132,130,128,128,124,126,0
7148,131,127,132,128,132,128,129,127,0
7152,128,128,132,128,128,128,129,127,0
7155,127,128,132,127,128,127,130,128,0
7159,127,127,131,125,127,126,128,128,0
7162,127,128,132,127,128,128,127,128,0
7165,128,128,132,129,128,127,127,128,0
7170,127,128,131,128,126,126,127,127,0
7175,130,126,131,130,126,126,122,126,0
7180,130,126,131,129,126,127,127,127,0
7185,128,129,132,128,128,128,128,127,0
7188,127,128,128,128,128,127,127,127,0
7191,127,127,129,128,126,125,127,128,0
7194,129,128,128,128,127,128,127,128,0
7197,127,128,127,129,126,128,126,128,0
7201,127,128,126,128,127,125,124,127,0
7204,130,126,126,132,126,126,121,126,0
7209,129,127,126,130,123,127,128,127,0
7212,126,128,122,129,128,128,128,128,0
7215,126,128,125,128,126,126,127,128,0
7219,128,127,125,127,127,125,127,128,0
7223,129,128,126,128,127,126,127,127,0
7226,126,128,126,127,127,128,128,127,0
7229,127,127,126,126,128,127,128,128,0
7233,126,127,128,130,128,127,123,126,0
7236,129,127,129,130,127,126,126,128,0
7240,127,129,129,128,131,130,129,128,0
7244,127,128,129,127,128,126,127,128,0
7248,127,128,132,126,128,126,129,128,0
7253,126,127,133,127,128,127,128,127,0
7260,128,129,131,127,129,128,129,128,0
7264,127,128,129,128,128,127,129,127,0
7267,126,128,132,128,122,126,124,125,0
7270,130,126,131,131,127,127,126,127,0
7272,128,128,130,126,127,129,130,128,0
7275,127,129,131,127,128,128,130,128,0
7278,126,126,131,126,128,125,129,128,0
7281,127,125,132,126,129,128,128,128,0
7285,127,128,128,128,128,129,129,128,0
7289,128,128,129,127,127,129,128,128,0
7292,129,126,131,131,128,128,123,126,0
7296,131,127,128,130,128,128,123,127,0
7299,127,128,127,125,128,129,130,128,0
7301,128,128,128,128,126,129,130,128,0
7304,126,129,130,127,128,127,129,128,0
7307,126,126,128,127,130,127,129,128,0
7311,127,128,126,126,128,128,129,127,0
7315,128,128,126,127,127,128,129,128,0
7318,127,128,126,125,126,127,129,127,0
7321,127,128,127,126,127,127,129,128,0
7323,128,128,125,128,127,129,128,128,0
7328,127,128,124,128,126,129,129,128,0
7336,127,128,124,128,123,126,122,126,0
7345,131,126,124,131,127,128,123,126,0
7348,130,127,124,128,127,130,128,128,0
7351,127,128,124,127,128,129,129,128,0
7355,126,128,124,127,128,127,129,128,0
7359,126,128,127,127,129,128,129,128,0
7362,128,128,125,127,128,129,128,128,0
7366,128,128,126,129,127,129,128,128,0
7369,127,127,127,129,124,126,124,126,0
7372,130,126,128,130,128,127,124,126,0
7375,130,126,130,127,128,128,129,128,0
7378,127,128,127,128,127,128,129,128,0
7381,127,128,128,125,128,127,131,129,0
7385,127,128,130,127,128,127,129,128,0
7388,127,128,129,128,128,128,128,128,0
7391,128,128,129,129,127,128,128,128,0
7394,127,128,129,127,127,125,129,128,0
7398,127,128,129,125,128,127,129,128,0
7407,126,128,128,128,128,128,126,128,0
7411,128,129,126,128,127,128,127,128,0
7418,128,128,127,128,128,123,122,126,0
7421,130,126,126,130,126,127,122,127,0
7424,129,127,124,129,123,127,129,128,0
7428,127,128,123,126,127,129,128,127,0
7431,128,129,124,125,128,127,128,128,0
7434,126,128,122,125,126,127,127,129,0
7438,127,127,121,127,127,127,127,128,0
7441,128,128,125,129,128,128,128,128,0
7445,127,128,123,128,127,129,128,127,0
7447,127,127,125,129,126,127,122,126,0
7451,131,126,125,131,125,125,128,128,0
7454,127,127,124,126,129,129,129,128,0
7457,127,128,124,128,128,127,130,128,0
7460,125,127,125,125,127,127,128,128,0
7463,126,128,126,126,128,128,128,128,0
7466,128,128,128,128,128,128,128,128,0
7469,127,128,128,128,129,128,129,127,0
7479,129,127,129,130,127,127,123,126,0
7482,131,126,130,130,127,126,126,128,0
7487,127,128,128,127,132,129,130,128,0
7493,128,129,128,127,128,128,130,128,0
7498,127,128,127,127,128,125,129,128,0
7502,126,128,126,126,127,127,128,128,0
7505,127,128,127,129,127,128,128,128,0
7508,127,128,127,128,127,128,128,128,0
7511,127,128,127,127,127,126,127,127,0
7515,127,128,126,127,128,128,127,127,0
7518,128,128,125,128,128,127,126,127,0
7521,127,128,125,127,127,128,127,127,0
7525,126,128,123,129,127,127,122,126,0
7528,130,127,123,130,128,128,123,126,0
7534,129,127,121,126,127,130,129,128,0
7537,127,128,122,127,127,128,128,128,0
7541,127,128,123,125,128,124,127,127,0
7544,130,127,123,129,128,129,123,126,0
7553,128,128,122,127,129,129,128,129,0
7558,128,128,123,128,128,129,129,127,0
7561,126,128,126,125,128,127,128,128,0
7565,126,127,125,127,128,129,129,127,0
7570,127,127,125,128,129,129,129,128,0
7575,127,128,127,127,128,128,129,128,0
7582,127,127,129,127,125,127,124,126,0
7586,128,126,131,129,129,127,125,126,0
7590,127,127,132,127,128,129,129,128,0
7593,128,128,134,129,131,129,131,128,0
7596,126,128,134,127,129,127,130,128,0
7600,127,127,133,125,129,128,131,128,0
7603,127,128,134,126,128,129,129,128,0
7607,128,128,132,128,129,130,129,128,0
7610,126,128,133,126,129,124,125,125,0
7613,131,126,133,130,129,128,124,126,0
7617,130,127,133,129,127,129,129,127,0
7620,129,128,132,126,131,129,130,127,0
7623,130,125,133,128,131,128,130,128,0
7627,127,127,131,125,126,127,128,128,0
7633,127,128,130,128,131,129,128,127,0
7637,127,128,130,127,128,129,127,128,0
7640,128,127,131,126,130,127,128,127,0
7643,127,126,131,131,130,128,123,126,0
7648,131,127,131,130,126,126,129,128,0
7655,127,128,131,128,132,130,129,127,0
7659,127,129,130,128,128,130,131,127,0
7662,127,128,128,129,127,127,125,128,0
7666,129,127,128,129,126,126,129,127,0
7669,127,127,130,128,132,131,131,128,0
7672,128,129,129,127,129,126,131,126,0
7676,127,125,128,129,125,126,124,125,0
7679,132,127,128,129,123,127,128,129,0
7683,129,129,127,127,129,130,130,129,0
7686,126,127,128,128,127,126,130,128,0
7690,126,128,126,126,125,124,129,128,0
7695,127,128,125,127,129,126,129,128,0
7698,128,127,126,128,129,128,128,129,0
7701,126,129,122,125,126,127,128,128,0
7706,127,127,124,129,126,126,121,126,0
7710,130,126,124,130,128,125,129,128,0
7715,126,128,124,128,128,131,130,129,0
7718,126,128,123,127,128,127,128,129,0
7722,125,128,126,126,129,128,129,128,0
7726,126,127,125,127,130,127,128,128,0
7732,127,128,124,128,129,128,128,128,0
7738,127,127,126,127,128,127,129,128,0
7743,127,126,129,129,124,125,124,127,0
7746,129,127,129,129,125,125,128,128,0
7749,128,128,129,129,129,128,127,128,0
7753,130,127,129,128,129,127,128,128,0
7778,126,126,128,127,129,126,129,128,0
7784,127,126,130,128,127,127,127,128,0
7788,127,127,130,128,129,128,129,128,0
7792,128,128,130,127,126,125,127,128,0
7796,128,127,131,125,123,125,126,128,0
7799,127,128,131,126,126,127,127,128,0
7803,128,128,131,127,126,126,127,127,0
7806,129,128,131,128,125,126,127,128,0
7809,127,127,130,126,126,124,127,127,0
7813,126,126,131,127,127,126,128,129,0
7816,127,127,130,128,125,126,127,128,0
7830,129,128,129,129,126,127,127,127,0
7834,128,127,130,127,124,125,127,128,0
7840,127,126,131,127,127,126,125,127,0
7846,128,129,130,128,128,129,128,128,0
7850,128,129,128,127,126,128,129,128,0
7853,127,127,129,128,126,128,124,127,0
7856,130,127,128,129,127,127,122,125,0
7859,130,125,127,126,126,130,128,128,0
7863,127,129,125,128,126,129,126,127,0
7866,127,128,125,127,126,127,127,128,0
7870,126,128,124,126,126,129,128,128,0
7874,127,128,123,127,126,129,127,127,0
7877,127,129,123,127,127,129,127,128,0
7880,126,128,123,127,126,127,127,127,0
7883,127,126,122,130,128,128,124,126,0
7887,130,127,123,131,127,126,129,128,0
7890,129,128,124,128,129,129,130,129,0
7894,127,127,124,127,129,127,129,128,0
7897,127,127,126,128,127,127,130,127,0
7900,127,127,127,128,131,129,130,128,0
7903,127,127,128,128,129,128,130,128,0
7906,127,127,129,128,128,124,130,127,0
7910,127,127,132,131,130,128,126,126,0
7915,129,128,128,130,129,126,129,128,0
7920,128,129,129,126,130,130,131,128,0
7923,127,128,129,126,129,128,131,127,0
7928,127,127,130,129,131,128,126,126,0
7931,129,128,129,130,130,125,131,129,0
7934,127,129,129,125,130,129,129,128,0
7938,127,128,125,124,129,129,130,128,0
7941,127,128,127,125,128,126,129,128,0
7944,127,128,123,126,129,127,128,128,0
7947,128,128,123,127,128,128,128,128,0
7951,127,128,123,128,128,128,127,128,0
7954,128,126,123,130,128,128,123,126,0
7958,130,126,123,129,126,126,129,128,0
7961,129,128,120,125,127,129,129,127,0
7964,128,128,120,127,126,128,128,128,0
7967,125,128,124,128,122,126,128,128,0
7970,127,127,126,126,127,129,127,128,0
7973,128,128,124,128,127,129,128,128,0
7975,128,128,125,128,127,128,129,128,0
7978,127,127,128,130,128,128,123,126,0
7983,130,127,129,129,129,128,124,126,0
7988,127,126,131,128,129,128,129,128,0
7992,130,127,131,126,127,128,130,128,0
7995,129,128,132,128,129,125,131,129,0
7999,127,128,134,127,128,127,129,128,0
8001,127,128,132,128,127,127,130,128,0
8004,127,129,133,128,127,126,129,128,0
8008,126,128,133,126,125,123,124,126,0
8011,129,126,133,131,128,127,123,126,0
8015,127,127,134,127,130,128,128,128,0
8018,128,129,131,126,126,126,128,128,0
8021,129,126,132,127,126,125,127,128,0
8023,127,126,131,127,128,127,127,128,0
8035,126,128,131,126,127,129,126,127,0
8041,127,127,129,126,126,128,125,127,0
8044,127,128,130,126,126,126,125,127,0
8048,131,126,127,131,127,127,119,126,0
8052,127,126,130,128,128,129,125,128,0
8055,127,128,126,126,128,128,125,127,0
8057,127,127,127,126,125,126,124,127,0
8062,129,127,128,130,128,129,121,126,0
8069,127,128,125,127,126,128,125,128,0
8076,128,128,125,128,127,128,126,128,0
8080,126,128,126,127,126,126,127,128,0
8083,127,126,128,127,127,125,126,128,0
8087,127,129,126,126,125,127,127,127,0
8090,128,128,127,128,126,127,128,128,0
8093,127,128,127,126,126,125,127,128,0
8097,126,127,130,126,125,124,127,127,0
8100,130,128,128,128,128,127,128,128,0
8103,128,128,128,128,127,128,128,128,0
8109,128,128,129,128,127,127,124,126,0
8113,130,126,128,131,128,128,125,126,0
8115,131,126,129,129,126,129,130,128,0
8118,128,128,129,128,130,131,130,128,0
8121,127,128,129,125,128,128,130,127,0
8124,127,127,133,128,130,128,130,128,0
8127,127,127,131,127,128,129,129,127,0
8130,128,128,132,129,130,129,129,128,0
8142,126,127,134,127,127,128,130,128,0
8145,127,127,135,127,128,127,129,127,0
8149,127,128,135,127,130,130,130,127,0
8152,127,128,137,127,128,129,130,127,0
8155,127,129,135,127,128,129,130,127,0
8158,126,125,137,130,127,129,125,126,0
8161,129,128,134,130,128,128,128,127,0
8165,127,129,133,128,129,129,131,128,0
8168,127,128,131,125,128,128,131,128,0
8171,126,128,131,126,127,126,130,127,0
8174,129,127,130,130,127,126,130,128,0
8187,127,128,125,127,129,128,130,128,0
8191,127,128,123,128,128,128,131,128,0
8194,126,128,123,125,127,125,129,128,0
8197,128,128,123,127,129,128,129,128,0
8200,127,128,121,129,128,129,129,129,0
8203,127,129,122,128,127,127,127,129,0
8206,128,127,122,130,127,128,123,127,0
8210,130,127,122,130,127,127,128,128,0
8221,128,129,124,126,128,128,128,128,0
8225,127,128,123,128,128,127,128,129,0
8231,126,128,123,125,128,126,128,128,0
8236,126,127,123,126,127,128,127,128,0
8246,127,128,123,128,128,127,126,128,0
8239,126,128,124,128,127,129,127,129,0
8252,127,127,124,127,124,126,122,126,0
8256,129,127,123,130,127,128,121,126,0
8259,128,127,126,125,127,128,127,128,0
8262,128,128,124,126,127,127,127,128,0
8266,127,128,123,125,127,125,126,128,0
8269,126,127,126,126,128,126,126,127,0
8272,128,128,124,128,127,128,126,128,0
8276,128,128,125,128,125,128,127,128,0
8279,126,128,124,127,125,125,127,127,0
8282,127,126,125,130,127,127,121,126,0
8286,129,126,124,128,129,129,126,128,0
8289,127,128,125,127,128,128,127,128,0
8292,128,127,125,127,127,123,124,127,0
8295,128,126,127,130,128,127,124,126,0
8299,129,126,126,128,129,129,128,127,0
8302,127,128,126,128,129,128,128,128,0
8305,126,127,125,128,129,127,129,128,0
8310,127,128,130,125,126,126,129,128,0
8315,128,127,128,128,128,128,128,128,0
8319,128,128,129,128,127,128,128,127,0
8322,127,127,130,128,128,125,127,127,0
8326,127,126,132,130,127,128,122,127,0
8330,129,128,130,129,126,126,128,128,0
8335,129,129,130,127,128,130,129,128,0
8339,127,128,129,125,129,129,129,129,0
8342,127,127,130,127,124,128,129,127,0
8345,127,128,130,126,128,129,128,128,0
8348,128,128,129,128,127,129,129,127,0
8350,128,128,129,126,126,127,129,127,0
8353,127,127,129,126,126,127,130,127,0
8358,127,128,128,126,128,129,127,128,0
8370,128,128,127,127,128,130,129,127,0
8375,128,129,126,127,124,126,129,127,0
8379,126,126,128,130,128,129,125,126,0
8382,130,126,126,130,128,130,129,128,0
8386,126,128,124,125,130,131,130,129,0
8391,127,128,124,127,128,127,130,128,0
8396,127,126,125,130,128,129,125,126,0
8399,130,127,126,127,131,129,130,128,0
8449,127,128,124,126,130,129,130,128,0
8465,126,128,124,125,130,128,131,128,0
8470,126,128,125,125,129,126,130,128,0
8477,127,128,127,126,129,129,128,128,0
8480,127,129,125,129,129,127,128,128,0
8484,127,128,125,127,129,127,129,128,0
8513,127,128,125,127,125,125,122,126,0
8522,130,127,126,130,127,128,127,128,0
8530,126,128,126,126,129,128,129,128,0
8537,128,128,125,127,129,127,128,128,0
8544,127,128,124,125,127,125,127,128,0
8583,127,128,128,128,127,128,126,128,0
8596,129,128,128,129,128,128,126,129,0
8604,128,128,129,129,126,127,127,128,0
8651,128,126,129,128,124,124,126,128,0
8661,127,126,130,127,127,127,126,128,0
8668,127,129,130,129,127,127,127,128,0
8673,127,128,129,128,128,128,125,127,0
8678,127,127,130,129,125,127,122,126,0
8721,130,127,129,129,127,128,123,125,0
8734,129,127,125,127,129,130,130,128,0
8741,128,128,127,127,129,129,129,128,0
8746,126,127,128,127,127,127,129,129,0
8750,126,127,127,127,126,127,128,128,0
8754,127,128,126,128,129,130,129,128,0
8757,127,128,126,128,128,129,129,129,0
8760,126,127,124,125,125,128,124,126,0
8764,130,127,126,131,127,129,124,126,0
8767,128,125,125,129,130,130,131,128,0
8770,127,129,124,127,129,129,130,128,0
8774,127,128,125,126,128,126,129,128,0
8777,127,126,127,127,132,125,129,128,0
8783,127,128,126,127,129,128,129,128,0
8788,128,128,125,129,129,128,129,127,0
8794,127,128,127,128,125,126,124,125,0
8798,129,127,130,131,128,127,124,126,0
8801,129,126,128,126,129,127,130,128,0
8804,127,129,129,126,130,129,131,126,0
8806,127,128,130,125,129,127,129,128,0
8809,124,126,131,127,130,127,128,127,0
8812,127,128,129,126,127,128,129,128,0
8815,128,128,130,128,127,128,128,128,0
8818,127,127,129,125,127,126,128,127,0
8822,129,126,130,131,127,127,123,126,0
8825,130,126,129,128,130,128,128,128,0
8828,127,127,128,128,129,129,128,127,0
8832,127,128,129,125,127,126,128,128,0
8835,128,127,128,128,125,126,125,128,0
8838,128,127,128,128,128,128,128,128,0
8841,128,128,127,128,126,128,127,128,0
8845,127,127,126,126,126,127,128,128,0
8847,126,128,126,128,128,127,127,128,0
8850,127,127,128,125,126,128,127,128,0
8855,127,128,128,129,126,128,129,128,0
8861,126,127,129,127,126,127,128,128,0
8865,126,127,129,127,126,125,128,128,0
8868,129,127,131,128,126,127,127,128,0
8871,127,128,131,128,126,128,127,127,0
8875,128,128,131,126,124,126,128,128,0
8878,127,125,131,129,126,127,123,125,0
8881,131,127,130,130,126,126,127,127,0
8885,128,128,131,128,129,128,128,128,0
8888,128,129,131,126,127,128,129,128,0
8891,127,128,128,127,129,127,129,128,0
8895,126,127,128,126,129,129,128,128,0
8898,128,128,127,128,128,130,128,128,0
8902,128,127,127,128,129,129,129,127,0
8905,127,127,127,130,128,129,123,127,0
8908,130,127,126,130,129,129,124,126,0
8918,126,128,124,126,131,131,130,128,0
8922,127,129,125,127,128,128,130,128,0
8928,127,128,124,125,128,125,129,128,0
8988,127,127,125,127,129,128,130,128,0
8998,127,128,126,129,130,129,130,128,0
9006,127,128,126,127,128,128,130,129,0
9012,127,126,128,130,129,128,125,126,0
9019,130,126,129,131,130,128,125,127,0
9024,127,128,131,125,130,129,130,127,0
9029,127,128,131,125,129,128,130,128,0
9034,126,128,132,126,126,125,130,127,0
9040,128,128,130,128,126,127,125,126,0
9045,127,127,129,127,131,130,131,128,0
9048,125,128,129,128,130,128,129,127,0
9052,126,128,130,126,127,127,130,128,0
9056,127,126,130,127,127,127,128,129,0
9060,127,128,126,127,126,128,128,127,0
9064,129,128,126,128,127,128,129,128,0
9069,126,128,126,128,125,128,122,126,0
9072,130,126,126,130,127,127,123,126,0
9075,128,128,126,125,128,129,129,128,0
9079,128,128,125,125,128,128,129,128,0
9084,127,128,126,125,126,126,128,128,0
9090,127,127,126,127,128,126,127,128,0
9093,127,128,126,127,128,128,127,128,0
9096,127,128,125,127,129,128,128,128,0
9100,126,127,127,126,127,126,128,128,0
9104,127,127,127,126,128,127,128,128,0
9106,128,128,127,128,127,127,127,127,0
9109,128,128,128,128,128,128,128,128,0
9112,128,128,127,127,123,127,123,126,0
9115,130,127,129,130,127,127,124,127,0
9118,130,127,128,126,128,128,129,127,0
9121,128,128,129,126,128,128,129,129,0
9124,128,128,127,127,128,127,128,128,0
9127,128,128,128,127,125,125,129,128,0
9130,127,128,129,128,127,128,129,128,0
9133,128,127,128,128,127,129,128,128,0
9137,127,128,128,127,124,126,127,128,0
9140,127,126,129,130,129,129,123,126,0
9148,128,126,129,129,124,129,128,128,0
9152,127,128,128,128,130,130,128,128,0
9156,127,128,129,127,127,128,128,128,0
9159,127,126,130,127,124,128,129,128,0
9162,127,127,129,126,129,127,127,128,0
9166,129,128,130,128,128,129,128,128,0
9169,128,128,130,127,128,127,126,127,0
9172,126,125,130,129,127,127,122,126,0
9175,130,127,130,130,127,126,127,128,0
9180,127,128,130,126,127,128,128,128,0
9183,127,128,129,125,126,126,127,127,0
9188,126,128,127,127,128,126,127,127,0
9191,127,127,127,127,127,127,127,127,0
9194,127,128,126,128,126,127,127,128,0
9197,127,128,125,126,125,126,128,128,0
9200,126,128,125,126,122,121,122,127,0
9258,131,127,124,130,126,127,123,128,0
9271,128,128,124,129,128,129,128,129,0
9288,127,128,123,128,126,127,128,127,0
9296,128,128,125,125,127,128,128,128,0
9303,127,128,123,126,128,127,128,127,0
9308,127,128,125,128,128,128,129,128,0
9312,127,128,125,128,129,128,129,128,0
9316,126,127,126,130,130,129,125,126,0
9319,130,127,127,130,128,129,127,124,0
9322,128,128,127,127,128,129,130,127,0
9326,128,128,128,125,128,130,131,128,0
9329,127,128,128,127,129,128,130,128,0
9332,126,128,131,125,129,128,130,128,0
9335,127,128,130,129,128,128,129,128,0
9339,127,129,131,128,129,128,129,127,0
9342,127,128,131,125,125,125,129,128,0
9345,127,127,132,127,129,127,129,127,0
9349,128,128,130,128,129,129,129,128,0
9352,127,128,129,127,128,128,128,128,0
9355,127,127,130,127,128,126,128,126,0
9358,129,127,129,131,128,129,124,126,0
9364,130,127,131,126,129,130,129,128,0
9369,126,129,128,128,128,128,129,128,0
9374,127,128,128,127,128,128,129,128,0
9379,127,127,129,127,128,125,129,128,0
9383,127,128,127,127,127,127,127,128,0
9388,129,128,126,127,128,128,128,128,0
9392,126,127,126,127,125,126,123,127,0
9399,128,126,127,129,127,127,123,127,0
9408,130,128,128,127,128,128,129,128,0
9412,127,128,127,126,126,129,128,128,0
9416,127,127,125,127,128,126,127,129,0
9419,126,128,127,127,125,126,127,128,0
9423,128,128,126,127,128,128,127,128,0
9427,128,128,124,128,128,128,127,128,0
9431,126,128,124,128,126,126,127,127,0
9434,127,126,124,131,126,127,122,126,0
9437,128,126,124,131,125,127,127,128,0
9440,128,128,123,128,129,128,128,128,0
9444,126,128,125,125,130,127,128,129,0
9448,127,128,124,126,127,123,128,128,0
9454,127,128,125,128,127,128,127,128,0
9457,128,128,125,129,128,128,127,128,0
9461,127,128,125,127,127,126,128,128,0
9464,127,126,127,129,126,127,122,126,0
9467,130,126,128,128,124,127,129,128,0
9470,127,128,127,126,128,129,130,127,0
9474,127,128,128,127,128,127,128,128,0
9478,126,128,129,125,122,125,125,127,0
9482,128,128,128,130,126,127,127,128,0
9485,128,128,129,127,129,130,130,128,0
9488,127,128,129,127,127,127,130,128,0
9492,126,127,129,125,128,128,129,128,0
9495,127,128,130,128,129,130,130,127,0
9498,127,127,130,129,128,131,129,127,0
9502,127,128,131,128,128,127,129,128,0
9505,126,127,130,127,127,125,124,126,0
9508,130,126,130,131,127,129,124,127,0
9511,127,128,130,126,128,130,130,128,0
9515,127,128,129,126,128,129,130,128,0
9522,126,128,131,125,128,128,130,127,0
9528,126,128,132,128,129,129,129,128,0
9531,127,128,129,128,128,129,129,128,0
9535,128,128,128,127,127,128,129,128,0
9538,127,127,128,130,127,127,124,126,0
9541,130,127,128,130,128,128,128,129,0
9545,128,128,126,127,129,130,131,128,0
9548,127,129,126,127,129,129,129,128,0
9551,127,128,127,127,129,126,129,128,0
9555,127,128,127,126,128,127,128,128,0
9558,127,128,127,128,128,127,127,128,0
9562,128,128,126,127,127,127,128,128,0
9565,126,127,127,127,127,125,126,126,0
9568,130,127,127,130,128,128,122,127,0
9572,128,127,127,127,128,129,127,128,0
9575,129,129,126,127,127,128,128,128,0
9578,128,128,127,127,127,124,127,128,0
9582,126,127,127,127,126,127,127,128,0
9589,127,128,127,126,129,128,126,127,0
9595,127,128,125,127,128,128,127,128,0
9598,128,127,127,125,123,127,122,126,0
9601,130,126,127,129,126,127,122,126,0
9603,130,127,128,126,127,128,128,127,0
9607,128,128,124,128,128,129,128,128,0
9610,127,127,126,125,128,126,127,128,0
9614,127,127,124,127,127,127,127,127,0
9617,127,128,126,128,128,128,128,127,0
9620,127,127,126,129,129,128,128,128,0
9624,127,127,126,127,126,125,127,127,0
9628,128,125,128,131,129,127,122,125,0
9631,130,126,129,127,131,130,127,128,0
9634,128,128,130,127,128,128,129,128,0
9637,126,128,130,127,127,127,130,128,0
9640,127,128,133,125,130,126,129,127,0
9643,126,128,130,127,126,127,129,128,0
9648,128,128,129,128,127,128,129,128,0
9652,126,129,131,127,127,126,126,126,0
9656,130,127,130,129,127,127,124,125,0
9666,130,127,130,128,125,125,128,127,0
9671,128,128,129,126,127,129,129,128,0
9674,128,128,127,126,130,127,130,129,0
9676,126,128,127,127,129,128,129,128,0
9679,127,128,127,127,127,129,128,127,0
9682,128,127,126,128,128,129,129,128,0
9685,127,128,127,128,129,128,128,127,0
9688,130,126,127,131,129,128,124,126,0
9691,131,127,127,130,126,131,131,128,0
9694,127,128,125,128,132,130,130,128,0
9697,126,128,128,128,130,128,130,128,0
9699,125,127,126,127,128,126,129,128,0
9702,126,128,126,125,127,127,129,128,0
9705,126,128,126,128,128,128,129,128,0
9708,127,128,126,127,127,127,129,128,0
9711,126,127,129,125,123,124,123,126,0
9715,130,127,127,130,125,125,128,127,0
9718,127,128,126,127,127,128,128,128,0
9721,128,128,127,128,124,126,129,128,0
9730,127,128,126,125,126,126,128,128,0
9733,127,127,126,127,127,128,128,127,0
9736,128,128,126,128,127,128,128,127,0
9739,127,127,127,128,128,128,129,128,0
9742,126,126,127,131,127,127,124,126,0
9745,130,126,128,131,127,129,125,127,0
9748,127,128,128,128,129,129,129,128,0
9750,126,128,128,128,130,129,129,128,0
9754,126,127,129,125,128,127,129,128,0
9757,126,127,129,125,129,128,128,127,0
9760,127,127,130,128,128,129,128,128,0
9763,127,128,131,128,127,127,128,128,0
9765,127,127,131,126,124,125,127,127,0
9769,127,126,130,131,128,127,123,126,0
9772,130,127,132,126,128,129,128,128,0
9775,127,128,132,128,128,128,129,128,0
9779,127,128,132,126,127,126,128,128,0
9781,127,128,131,127,125,126,127,128,0
9786,128,128,131,128,126,127,127,128,0
9791,129,128,128,128,127,128,126,128,0
9796,127,128,132,131,126,126,122,125,0
9801,131,127,128,130,129,127,122,126,0
9803,127,128,127,127,128,128,127,129,0
9806,128,128,125,127,127,128,127,128,0
9809,128,128,127,125,126,125,126,129,0
9812,125,127,124,126,127,127,127,127,0
9816,127,128,123,129,129,129,127,128,0
9819,127,128,122,129,127,129,127,128,0
9821,127,127,122,128,126,125,125,127,0
9826,129,126,121,130,128,127,123,126,0
9829,129,126,122,128,129,129,128,128,0
9832,129,128,123,129,129,129,129,128,0
9835,127,128,121,127,127,128,129,129,0
9838,127,124,125,129,126,127,125,127,0
9840,128,127,125,128,129,130,130,128,0
9843,128,128,125,127,127,129,131,129,0
9848,127,128,127,126,130,128,130,128,0
9854,126,128,129,128,125,128,130,128,0
9859,127,129,131,128,128,128,129,128,0
9862,127,129,131,127,129,127,130,128,0
9865,128,129,130,127,130,127,129,128,0
9868,127,127,130,129,128,128,126,126,0
9871,130,127,131,129,126,127,132,128,0
9874,127,128,131,128,130,128,131,128,0
9877,126,128,130,125,128,127,130,128,0
9881,126,127,130,125,129,126,129,128,0
9884,126,127,129,128,129,129,129,128,0
9887,127,128,129,128,128,129,128,128,0
9890,128,128,130,128,127,125,127,128,0
9894,126,127,131,131,127,127,122,126,0
9898,131,126,128,130,125,126,125,127,0
9901,128,128,130,127,128,129,128,128,0
9903,127,128,128,126,128,127,128,128,0
9908,127,127,131,127,126,127,128,128,0
9912,127,128,128,126,127,128,128,128,0
9918,128,127,127,128,128,130,127,128,0
9922,128,128,127,127,126,128,127,128,0
9927,128,127,124,129,126,127,122,126,0
9930,131,126,126,130,125,126,127,128,0
9934,129,126,127,125,127,127,128,127,0
9937,128,129,125,127,127,127,128,128,0
9940,127,128,124,127,128,126,128,128,0
9943,127,128,124,126,127,127,127,128,0
9949,127,128,123,128,129,128,129,128,0
9952,127,128,124,129,127,127,128,128,0
9956,128,127,124,128,127,124,122,126,0
9959,131,126,126,131,128,127,125,126,0
9962,127,128,126,126,129,128,128,128,0
9965,126,128,126,128,129,129,129,128,0
9968,126,127,127,125,128,127,128,128,0
9971,126,127,128,127,127,128,129,128,0
9975,128,127,128,129,129,128,128,127,0
9980,127,128,129,128,130,128,129,127,0
9985,127,127,131,126,125,124,122,125,0
9989,130,126,131,130,127,127,125,126,0
9992,128,127,130,127,129,129,129,128,0
9995,128,128,130,126,127,128,129,127,0
9998,126,128,131,124,126,126,128,128,0
10000,127,128,130,125,127,127,128,127,0
10003,127,128,129,128,127,127,128,127,0
10007,127,128,129,128,126,128,127,127,0
10011,127,127,129,126,127,126,128,128,0
10014,127,126,128,130,127,128,122,126,0
10017,130,128,129,126,127,129,127,128,0
10020,129,128,125,128,129,128,127,127,0
10024,127,127,125,127,127,124,128,128,0
10027,126,127,125,126,128,127,128,128,0
10030,127,127,124,128,126,128,127,127,0
10033,127,128,123,128,127,128,128,127,0
10037,127,128,122,127,128,125,127,126,0
10041,129,127,123,130,127,128,124,126,0
10046,129,127,123,128,129,130,129,127,0
10051,128,128,121,126,129,129,130,128,0
10054,125,128,121,126,127,127,130,128,0
10059,126,128,123,126,128,127,130,128,0
10062,127,128,123,126,127,128,128,128,0
10067,127,127,125,128,129,128,129,128,0
10070,128,128,126,127,127,128,128,129,0
10073,126,127,127,127,128,125,128,128,0
10076,125,127,128,129,126,130,126,128,0
10079,128,129,128,128,128,129,128,129,0
10082,128,128,128,127,128,128,129,128,0
10085,128,126,128,130,129,128,124,126,0
10089,131,127,130,130,125,127,129,127,0
10093,128,128,130,128,128,129,129,128,0
10097,127,128,129,126,128,128,129,127,0
10100,126,127,133,128,127,126,125,127,0
10102,129,127,131,130,127,127,129,128,0
10111,128,128,130,129,130,130,130,128,0
10114,126,128,130,127,128,128,130,128,0
10117,127,128,131,126,128,127,129,128,0
10120,128,127,130,126,129,129,128,128,0
10123,127,128,129,128,128,127,128,128,0
10129,128,128,129,127,128,125,128,128,0
10132,127,126,132,130,126,126,123,126,0
10136,131,127,128,130,126,126,129,128,0
10139,128,129,127,128,128,129,128,128,0
10142,129,127,127,127,128,127,129,128,0
10145,127,127,126,125,127,127,128,128,0
10149,127,128,126,126,128,128,128,128,0
10152,127,128,125,128,126,128,127,128,0
10155,127,127,125,128,128,127,128,127,0
10158,126,127,125,126,126,126,127,127,0
10162,129,127,125,131,129,127,123,127,0
10165,128,127,125,128,129,129,128,127,0
10168,127,128,125,127,128,128,128,128,0
10171,127,127,126,127,127,127,128,128,0
10177,126,126,127,131,127,129,123,126,0
10183,126,127,127,128,129,129,128,127,0
10187,127,127,128,127,130,129,129,128,0
10190,127,128,129,127,125,126,129,128,0
10193,126,127,129,127,128,126,128,128,0
10197,128,129,130,128,129,128,128,128,0
10200,127,128,129,128,130,127,128,127,0
10203,126,128,131,129,127,126,122,125,0
10207,131,127,131,130,128,126,123,126,0
10210,129,127,131,128,129,128,129,128,0
10213,128,129,130,127,128,128,130,128,0
10215,127,129,131,127,128,126,128,128,0
10218,126,128,129,124,127,125,128,128,0
10221,127,128,129,129,128,128,128,127,0
10223,128,128,128,128,125,128,128,128,0
10226,127,128,129,126,123,126,123,126,0
10229,129,126,128,131,126,127,124,126,0
10233,128,127,128,128,128,129,128,128,0
10238,129,128,127,127,127,128,128,127,0
10243,128,128,128,125,126,126,128,128,0
10247,126,125,128,125,127,125,128,128,0
10250,126,127,125,128,127,129,127,128,0
10253,128,128,125,128,128,129,127,128,0
10255,127,128,125,126,127,128,128,128,0
10258,127,124,126,130,127,128,122,126,0
10261,129,127,126,129,129,129,128,128,0
10265,128,128,128,128,128,129,128,128,0
10268,127,128,126,126,127,127,129,128,0
10271,128,128,126,126,128,127,128,127,0
10274,128,126,128,129,123,129,129,128,0
10279,127,128,128,128,128,129,129,128,0
10282,127,128,128,125,129,128,130,127,0
10286,126,126,129,130,130,128,124,126,0
10289,130,127,129,129,126,129,129,128,0
10295,128,128,128,127,129,130,129,128,0
10300,127,128,128,125,129,128,129,128,0
10304,128,128,130,125,129,128,129,127,0
10311,127,128,129,126,127,128,128,128,0
10315,128,128,129,128,128,128,128,127,0
10318,127,127,129,127,128,127,128,127,0
10321,126,127,130,128,126,126,128,127,0
10324,127,128,129,128,127,128,127,127,0
10327,128,128,129,129,127,129,128,127,0
10331,128,128,129,128,126,126,124,125,0
10334,131,126,128,131,128,128,122,125,0
10337,130,127,129,130,126,126,126,128,0
10341,131,129,129,128,129,129,129,127,0
10346,128,128,129,125,128,128,129,128,0
10349,126,128,130,127,129,126,129,128,0
10351,126,128,130,126,127,128,128,127,0
10354,128,128,128,126,128,128,128,128,0
10358,127,128,127,127,128,127,128,128,0
10362,126,127,126,127,124,126,124,126,0
10366,130,126,126,132,126,128,125,128,0
10371,128,128,124,128,128,130,129,128,0
10375,127,128,123,128,129,129,128,128,0
10378,126,127,123,127,128,127,128,128,0
10381,127,128,122,127,128,129,128,128,0
10385,127,128,122,129,127,128,126,128,0
10388,127,128,121,128,127,128,129,128,0
10391,128,128,123,128,125,127,124,126,0
10394,129,127,122,131,128,127,124,126,0
10397,126,128,121,128,129,129,130,128,0
10400,126,128,123,127,129,127,129,129,0
10402,126,129,122,125,127,126,129,128,0
10405,127,129,126,126,127,127,129,128,0
10408,126,128,124,128,127,129,129,128,0
10412,128,128,126,129,128,128,130,127,0
10415,127,128,124,128,124,126,124,126,0
10419,131,126,127,130,127,128,125,127,0
10424,126,128,126,128,129,127,129,128,0
10428,127,128,126,127,129,128,130,128,0
10433,126,128,125,126,128,127,130,128,0
10436,127,127,126,126,130,127,130,128,0
10440,127,127,126,128,128,128,130,128,0
10442,128,127,128,128,129,128,129,128,0
10445,127,128,127,126,127,127,129,127,0
10448,128,126,129,131,128,128,124,126,0
10451,130,126,126,127,128,129,129,128,0
10453,127,128,126,126,127,129,128,128,0
10456,127,128,127,128,127,127,130,128,0
10459,126,128,127,125,127,128,129,128,0
10461,127,128,126,128,129,128,128,128,0
10464,127,127,128,128,129,128,127,128,0
10467,127,127,128,127,127,126,125,125,0
10470,131,126,129,130,127,128,123,126,0
10473,129,127,130,127,129,128,128,128,0
10477,128,128,128,128,127,129,128,128,0
10483,127,128,128,128,128,127,129,127,0
10487,127,127,129,128,128,126,128,128,0
10490,127,128,131,128,128,128,127,128,0
10493,127,128,131,129,126,128,128,127,0
10498,128,128,131,127,127,123,128,127,0
10501,127,127,132,128,126,126,122,126,0
10504,130,126,130,130,125,123,128,128,0
10507,126,128,130,128,127,129,127,129,0
10510,127,128,128,127,128,127,127,128,0
10514,127,128,127,128,125,128,122,126,0
10518,129,127,127,130,124,126,127,129,0
10521,127,129,127,126,128,130,128,128,0
10524,128,128,125,125,127,128,127,128,0
10527,127,128,126,125,128,126,127,127,0
10531,127,128,125,127,128,128,126,127,0
10535,129,128,127,129,126,129,127,128,0
10540,127,128,126,127,126,126,127,128,0
10545,127,127,126,127,127,125,127,127,0
10548,126,127,126,125,129,128,128,128,0
10552,127,127,128,128,129,130,130,128,0
10555,128,128,129,127,124,128,129,127,0
10558,130,127,128,130,127,128,124,126,0
10561,130,127,130,130,130,129,125,126,0
10563,127,127,131,125,131,129,131,128,0
10568,127,129,130,125,130,129,132,128,0
10571,127,128,131,124,128,124,126,126,0
10578,127,129,129,125,130,129,130,127,0
10575,131,127,131,128,130,128,126,127,0
10581,128,129,129,127,128,127,131,128,0
10585,126,128,128,126,128,125,130,128,0
10588,126,126,128,127,131,128,129,128,0
10593,127,128,128,125,130,129,129,128,0
10599,128,128,127,128,129,127,129,128,0
10604,127,127,127,129,127,128,123,125,0
10610,130,127,127,131,129,128,123,127,0
10613,129,127,126,128,132,131,127,129,0
10617,128,128,123,125,128,130,128,127,0
10620,129,125,124,126,127,128,129,126,0
10623,127,126,126,129,127,126,123,127,0
10625,129,127,124,125,127,128,129,128,0
10628,128,128,125,125,129,128,127,127,0
10631,127,128,126,127,126,128,129,128,0
10634,127,128,126,127,128,126,126,128,0
10637,128,127,127,128,124,128,127,128,0
10640,128,128,125,128,125,127,128,128,0
10643,127,126,126,129,125,126,121,126,0
10651,130,127,126,127,126,127,128,128,0
10647,130,127,127,130,126,126,121,126,0
10654,129,129,125,128,127,130,128,129,0
10658,128,128,124,124,121,126,129,127,0
10664,126,126,126,126,126,126,127,127,0
10669,129,128,126,128,127,128,127,128,0
10672,128,128,128,126,126,128,129,129,0
10675,126,128,125,125,122,126,129,128,0
10678,126,126,129,130,126,127,122,126,0
10681,131,126,129,130,122,129,129,126,0
10684,128,129,127,125,127,128,128,128,0
10688,126,127,130,127,128,127,129,129,0
10691,125,126,130,126,125,127,130,128,0
10695,126,129,130,126,128,128,128,128,0
10699,128,129,127,126,127,128,127,128,0
10702,126,128,127,128,128,126,128,128,0
10705,126,128,128,125,126,125,127,128,0
10708,127,128,128,126,130,129,128,128,0
10711,127,128,128,129,129,129,128,128,0
10715,127,128,126,126,129,125,128,127,0
10719,129,126,128,131,128,129,124,126,0
10725,130,126,128,130,126,128,130,128,0
10728,128,128,125,127,130,130,130,128,0
10732,127,128,125,127,127,128,129,128,0
10735,125,127,126,129,126,127,125,126,0
10738,131,126,129,129,129,129,130,128,0
10741,127,128,126,128,129,130,129,128,0
10744,126,127,127,128,127,127,129,128,0
10748,127,127,129,126,127,127,128,128,0
10751,127,127,130,127,129,128,128,127,0
10754,127,127,131,128,129,127,129,128,0
10757,128,128,132,127,127,127,127,128,0
10760,127,127,134,131,128,127,123,126,0
10763,129,126,133,129,125,124,128,128,0
10767,128,128,133,126,130,130,129,128,0
10770,127,128,131,126,129,127,130,128,0
10773,126,127,133,127,128,127,129,127,0
10779,127,128,132,126,129,128,128,128,0
10789,128,128,131,128,128,127,129,128,0
10792,128,128,130,128,127,127,128,127,0
10796,127,127,130,126,124,125,126,126,0
10800,129,127,128,130,127,128,122,126,0
10803,128,127,127,128,128,130,128,127,0
10808,128,128,125,128,127,127,128,127,0
10813,127,128,128,125,127,126,128,128,0
10815,126,127,125,125,127,128,128,127,0
10819,127,128,125,128,128,128,127,128,0
10822,127,128,123,128,127,128,127,128,0
10825,126,128,124,126,126,127,122,126,0
10829,130,127,123,130,128,129,123,127,0
10832,130,126,123,126,129,129,128,128,0
10835,127,128,122,126,128,129,129,128,0
10839,126,128,124,127,128,123,127,127,0
10847,127,128,125,126,130,128,128,128,0
10852,127,128,122,127,129,128,128,128,0
10856,128,128,124,128,129,129,130,128,0
10863,127,127,127,126,129,126,128,127,0
10868,129,126,128,130,129,127,124,126,0
10871,130,127,128,128,130,131,132,129,0
10875,127,128,128,128,129,128,130,128,0
10878,127,128,130,127,130,127,130,126,0
10881,126,126,132,126,127,124,130,128,0
10885,128,128,131,125,129,130,129,128,0
10888,128,129,131,128,127,129,129,128,0
10891,127,128,134,127,121,126,128,126,0
10895,130,126,133,131,128,128,124,126,0
10898,130,126,132,127,130,129,131,128,0
10901,130,126,134,128,131,128,129,128,0
10905,127,128,133,125,127,128,130,128,0
10908,127,126,135,128,126,125,125,126,0
10913,129,127,133,127,129,131,130,126,0
10919,128,126,133,127,128,129,129,128,0
10922,126,128,131,127,126,128,131,129,0
10924,126,126,133,128,122,125,129,127,0
10928,127,128,133,129,128,127,126,128,0
10931,128,128,129,127,127,128,127,128,0
10934,127,128,129,128,127,126,127,127,0
10938,127,126,127,131,127,127,122,126,0
10941,131,127,127,130,123,128,129,129,0
10945,127,128,126,129,130,128,128,128,0
10949,127,128,128,128,130,127,128,128,0
10954,125,127,127,127,130,126,127,128,0
10958,126,128,126,128,127,128,126,128,0
10963,127,128,122,129,129,129,127,128,0
10966,128,128,123,125,128,127,127,127,0
10969,126,125,122,129,127,128,121,126,0
10974,130,127,122,129,123,128,128,128,0
10979,128,128,124,128,131,128,128,128,0
10986,127,128,126,127,127,127,127,128,0
10989,126,126,126,127,128,127,127,128,0
10992,127,127,126,125,128,128,127,128,0
10995,127,129,125,127,129,127,127,127,0
10999,128,128,125,126,128,126,128,127,0
11002,126,128,129,125,127,122,123,126,0
11005,131,127,128,131,128,127,125,124,0
11008,131,128,127,127,128,129,127,128,0
11011,127,129,128,128,128,129,129,128,0
11014,129,128,130,128,127,128,128,128,0
11017,126,128,127,128,127,128,129,128,0
11020,128,129,127,128,126,128,129,128,0
11023,127,128,127,127,127,128,130,128,0
11027,126,127,127,127,125,125,128,128,0
11032,127,127,126,126,127,128,128,128,0
11036,126,129,125,128,128,128,128,128,0
11043,127,128,125,128,127,129,128,127,0
11047,127,127,126,126,126,129,124,126,0
11050,130,127,127,131,129,128,125,126,0
11053,130,126,125,128,130,130,131,127,0
11056,127,128,126,128,128,128,130,128,0
11060,127,127,127,125,129,128,131,128,0
11063,127,128,128,126,128,127,130,128,0
11066,127,128,129,128,127,129,130,128,0
11069,127,129,129,127,128,127,129,128,0
11072,127,128,129,127,126,127,130,128,0
11077,126,127,131,127,124,127,130,128,0
11080,128,128,129,128,128,129,129,128,0
11084,128,129,128,128,128,128,129,127,0
11087,127,126,129,126,126,125,123,127,0
11090,130,127,129,130,128,129,123,125,0
11094,130,127,127,129,125,131,130,128,0
11099,128,128,128,127,129,129,129,127,0
11105,127,128,128,125,129,127,129,128,0
11109,127,126,130,126,127,127,128,128,0
11112,126,128,127,128,127,128,127,128,0
11115,126,128,125,128,126,129,127,128,0
11118,127,128,126,126,126,127,125,126,0
11120,129,127,126,131,128,126,122,125,0
11123,129,127,125,128,128,129,127,127,0
11126,127,128,124,128,129,129,128,128,0
11130,127,128,123,125,126,126,127,127,0
11134,126,128,124,125,126,125,127,128,0
11138,127,128,125,127,127,127,127,128,0
11141,127,128,124,128,127,127,127,128,0
11147,127,128,124,127,126,126,128,128,0
11150,126,126,126,129,127,127,122,127,0
11153,130,126,124,130,127,127,128,127,0
11159,127,128,125,126,127,128,129,128,0
11162,127,127,123,125,128,127,129,128,0
11165,127,127,124,127,125,125,126,126,0
11168,128,126,127,130,128,127,127,128,0
11171,127,128,124,126,129,130,131,129,0
11173,126,127,127,127,129,128,130,129,0
11176,124,127,129,128,128,127,130,128,0
11179,127,128,128,126,130,129,129,128,0
11182,128,128,130,128,130,130,129,128,0
11186,127,128,131,126,128,128,129,128,0
11189,127,126,132,130,127,127,124,126,0
11193,131,127,132,131,127,126,127,128,0
11197,128,129,132,126,128,129,129,128,0
11200,127,127,131,126,126,128,130,128,0
11202,124,127,131,127,128,127,129,128,0
11206,126,128,133,128,128,127,128,128,0
11209,128,128,131,127,127,129,129,128,0
11213,128,128,131,126,127,127,128,127,0
11219,127,127,132,126,125,126,128,128,0
11224,127,126,130,131,127,126,122,126,0
11227,128,125,131,126,128,128,127,128,0
11230,128,129,129,127,127,128,127,128,0
11233,127,127,129,126,127,124,127,127,0
11236,127,127,129,126,128,127,127,128,0
11239,128,128,126,128,126,127,127,128,0
11243,127,128,126,128,127,128,127,128,0
11247,127,127,128,130,126,127,122,126,0
11251,131,127,126,131,127,128,122,127,0
11254,128,128,125,126,127,129,128,128,0
11257,128,128,124,129,127,128,128,128,0
11260,127,125,121,125,127,125,127,128,0
11264,127,125,124,127,127,127,128,128,0
11267,127,128,124,128,128,129,128,128,0
11271,128,128,124,128,128,128,129,128,0
11276,127,128,126,130,127,128,124,126,0
11282,130,126,125,129,129,129,124,126,0
11285,128,127,127,125,128,129,129,128,0
11288,127,128,124,128,128,129,130,128,0
11295,126,127,126,127,128,127,131,127,0
11298,127,127,127,126,129,128,130,128,0
11301,130,129,128,125,129,129,129,128,0
11304,128,128,126,126,129,129,130,127,0
11307,127,128,128,125,127,126,127,127,0
11311,130,126,129,131,127,128,124,126,0
11314,130,127,129,125,128,131,131,128,0
11317,127,128,128,128,130,130,131,129,0
11320,127,128,129,128,127,127,129,128,0
11323,126,126,130,128,127,127,129,128,0
11327,127,128,132,127,129,128,129,128,0
11331,128,128,129,129,128,128,128,128,0
11335,127,128,130,128,126,126,128,128,0
11339,124,126,130,128,126,126,128,128,0
11341,128,128,131,128,128,128,127,128,0
11345,128,129,130,129,128,129,128,128,0
11348,127,128,131,129,127,126,122,126,0
11351,131,126,131,131,128,127,124,126,0
11355,131,127,130,128,123,130,130,128,0
11358,127,128,130,127,127,131,130,128,0
11361,127,128,128,127,130,126,130,129,0
11364,127,128,130,126,125,124,128,127,0
11369,128,127,129,128,128,127,128,127,0
11371,128,128,126,127,128,128,128,128,0
11374,127,128,125,125,127,126,128,128,0
11377,127,127,126,128,127,127,123,126,0
11381,129,127,124,131,128,125,130,128,0
11384,127,127,123,128,130,129,128,128,0
11388,127,128,123,128,128,128,127,128,0
11394,127,125,124,128,123,127,127,127,0
11398,129,126,126,128,129,128,127,128,0
11400,128,127,124,129,128,128,128,127,0
11403,127,127,125,127,128,128,128,127,0
11408,127,127,125,130,128,128,123,126,0
11411,131,127,127,130,126,124,127,127,0
11415,128,128,126,128,130,129,130,128,0
11418,127,128,126,125,127,127,127,128,0
11421,127,127,128,124,127,126,130,127,0
11424,126,128,128,125,128,127,127,128,0
11428,127,128,128,128,126,129,128,128,0
11431,127,129,129,127,127,126,128,127,0
11434,127,128,128,125,125,125,127,128,0
11439,127,127,128,126,123,126,127,128,0
11442,128,128,128,128,128,127,128,127,0
11447,127,127,127,128,126,127,128,127,0
11452,125,126,126,130,126,127,123,126,0
11456,130,126,127,130,128,126,125,127,0
11462,128,126,129,129,128,129,128,127,0
11465,126,127,125,128,127,128,129,128,0
11468,127,126,126,125,127,126,128,128,0
11471,126,127,126,126,128,128,128,127,0
11477,128,128,126,128,128,129,128,128,0
11480,127,128,125,127,128,128,128,128,0
11484,127,126,125,127,126,125,128,128,0
11487,128,126,125,130,129,129,123,126,0
11491,130,127,127,128,128,130,129,129,0
11494,127,128,126,125,128,129,129,128,0
11498,127,128,125,125,128,125,129,127,0
11502,127,128,128,127,126,127,129,127,0
11505,128,128,127,128,126,129,129,128,0
11509,127,128,127,128,127,128,129,127,0
11514,127,128,128,127,128,127,129,127,0
11519,127,128,129,130,129,128,124,126,0
11521,129,128,128,129,128,128,130,128,0
11525,128,128,128,127,128,128,130,128,0
11528,127,128,127,125,129,127,131,128,0
11531,127,128,131,126,127,124,129,128,0
11533,127,127,128,126,129,127,129,128,0
11538,127,128,129,127,128,129,129,128,0
11540,126,127,128,128,127,124,126,126,0
11544,130,126,129,131,128,129,125,126,0
11547,130,127,129,129,124,128,128,127,0
11551,128,128,129,128,127,129,129,127,0
11554,127,127,128,126,127,128,130,128,0
11557,126,127,131,128,128,126,129,128,0
11561,127,128,129,128,129,129,127,127,0
11566,128,128,130,128,126,127,128,128,0
11571,127,128,129,126,128,125,128,128,0
11575,126,127,130,130,128,126,123,126,0
11578,130,127,130,130,123,123,127,127,0
11582,129,129,129,127,127,127,128,127,0
11585,128,128,130,125,128,126,128,128,0
11588,126,125,130,127,127,126,128,128,0
11592,125,128,129,126,127,127,126,128,0
11596,128,128,128,128,127,128,126,128,0
11599,128,128,127,128,128,125,127,128,0
11602,126,126,128,126,125,123,123,126,0
11605,130,127,127,131,129,128,124,127,0
11608,128,128,127,126,127,128,128,127,0
11611,128,128,128,128,129,124,128,128,0
11614,126,127,128,126,127,125,128,128,0
11617,127,127,127,127,129,128,128,128,0
11622,127,128,126,129,128,128,127,128,0
11626,127,127,127,128,127,126,127,129,0
11629,127,126,126,131,127,129,123,127,0
11632,130,126,128,130,128,128,126,128,0
11635,128,129,130,128,129,129,129,128,0
11638,127,128,130,128,128,127,129,128,0
11641,126,128,130,128,128,125,129,128,0
11644,127,128,127,125,128,127,129,129,0
11647,127,128,128,128,128,129,129,128,0
11652,127,129,128,128,128,128,128,128,0
11655,128,128,128,127,124,125,128,127,0
11658,131,126,126,130,128,128,123,126,0
11661,129,127,128,127,128,128,128,127,0
11665,128,128,127,126,128,127,129,128,0
11669,127,128,126,128,128,126,129,128,0
11674,126,127,126,127,129,127,127,128,0
11682,129,127,127,127,129,129,128,128,0
11685,127,128,125,128,128,128,128,128,0
11688,127,127,127,129,128,128,123,126,0
11692,129,127,125,130,128,128,123,126,0
11695,130,127,125,128,128,130,129,128,0
11698,127,128,124,127,127,129,129,129,0
11702,126,128,125,127,126,126,128,128,0
11705,126,128,126,125,128,128,128,128,0
11709,127,130,124,127,127,129,128,128,0
11712,128,128,125,127,127,129,129,128,0
11715,128,128,127,126,128,124,123,126,0
11718,130,126,125,129,127,129,124,127,0
11721,128,128,127,127,128,130,129,127,0
11723,128,129,125,126,129,129,130,129,0
11728,126,127,127,128,129,128,130,128,0
11733,126,127,127,128,128,128,131,129,0
11738,127,128,128,126,128,129,129,128,0
11741,128,129,129,128,128,129,130,128,0
11745,126,127,130,128,127,125,129,128,0
11748,127,126,131,131,128,129,124,126,0
11752,130,127,131,126,129,129,130,128,0
11755,128,129,130,128,130,130,129,128,0
11758,127,128,130,125,129,128,130,128,0
11761,126,127,130,127,128,127,130,128,0
11763,126,127,130,129,129,129,129,128,0
11767,127,128,129,128,130,129,129,128,0
11770,127,128,129,127,127,128,128,128,0
11773,127,126,129,130,129,129,123,126,0
11776,129,127,128,129,123,129,129,128,0
11779,129,128,129,126,129,128,129,127,0
11786,128,128,129,128,128,127,128,127,0
11789,127,127,129,125,128,127,129,127,0
11793,127,127,129,128,128,128,127,127,0
11797,128,128,127,128,127,129,127,127,0
11800,128,128,127,127,126,126,127,127,0
11802,127,127,129,127,123,124,126,127,0
11806,128,128,128,128,127,128,126,128,0
11809,129,127,128,128,126,127,126,128,0
11814,127,128,126,127,125,123,123,126,0
11818,129,127,127,130,127,127,122,126,0
11820,132,126,126,130,126,124,127,128,0
11823,128,128,126,126,129,128,128,127,0
11826,127,128,126,126,129,127,127,128,0
11829,126,127,126,126,128,125,128,127,0
11832,126,128,126,127,128,126,127,129,0
11835,127,128,124,128,128,127,127,127,0
11839,128,128,124,127,127,126,127,127,0
11844,127,127,124,126,125,125,127,126,0
11848,129,128,123,130,128,128,123,126,0
11851,129,127,123,126,129,128,128,128,0
11854,126,129,124,127,127,127,127,128,0
11859,126,128,123,124,126,125,128,127,0
11862,126,127,125,127,128,127,127,128,0
11865,127,129,122,127,128,129,128,128,0
11869,126,129,123,127,127,128,128,128,0
11872,126,128,122,127,124,128,123,126,0
11878,130,127,127,130,128,129,122,126,0
11881,126,128,125,126,130,129,128,127,0
11885,126,128,126,127,128,129,129,128,0
11889,127,128,125,127,126,126,129,127,0
11893,126,127,125,127,127,128,129,128,0
11897,127,128,126,128,127,128,129,128,0
11903,128,128,127,128,127,128,129,127,0
11908,127,128,130,127,125,126,129,128,0
11912,129,127,130,131,128,129,125,126,0
11915,130,128,130,128,128,129,129,128,0
11918,128,128,131,126,128,129,130,128,0
11921,127,128,130,125,128,128,130,129,0
11924,126,128,131,127,129,128,130,129,0
11928,127,127,131,128,128,130,129,129,0
11931,127,128,130,128,128,129,128,128,0
11934,127,128,130,126,125,125,128,128,0
11938,127,127,128,129,128,128,125,126,0
11941,130,126,130,128,124,130,130,127,0
11945,128,128,130,127,127,130,130,128,0
11949,126,127,129,125,129,127,130,128,0
11954,126,127,130,125,130,129,129,128,0
11960,126,128,128,128,129,130,129,128,0
11967,127,128,128,128,129,131,129,129,0
11971,126,128,126,126,126,125,123,126,0
11974,129,126,125,131,129,129,123,127,0
11977,131,127,125,130,126,126,131,129,0
11980,128,129,122,127,129,129,128,128,0
11984,127,128,124,125,128,127,129,128,0
11988,126,127,122,130,129,129,124,127,0
11991,131,127,123,128,124,130,131,129,0
11995,127,129,121,125,128,128,129,129,0
11998,126,126,125,127,128,129,129,129,0
12002,126,128,126,127,126,127,130,129,0
12005,127,126,126,125,127,127,129,128,0
12008,127,128,125,128,127,127,129,128,0
12013,128,128,126,128,129,124,127,128,0
12018,124,127,132,131,127,127,124,126,0
12022,131,127,130,130,127,125,127,128,0
12026,128,127,130,129,131,127,129,128,0
12030,127,128,129,128,128,128,130,129,0
12033,126,128,131,127,126,125,128,128,0
12037,127,128,130,127,131,127,128,128,0
12040,127,129,132,126,128,128,129,128,0
12043,126,128,130,126,126,127,128,128,0
12047,124,128,130,126,125,123,121,126,0
12049,129,127,128,131,128,127,123,126,0
12052,128,128,132,128,128,129,126,127,0
12055,127,126,129,129,129,130,129,128,0
12058,125,127,129,128,127,125,125,127,0
12061,127,128,129,128,127,127,126,127,0
12065,128,128,128,129,129,127,127,127,0
12070,128,128,128,129,127,126,127,127,0
12077,127,127,128,132,127,126,121,126,0
12080,129,126,128,131,126,123,127,129,0
12083,128,128,128,127,128,126,126,128,0
12087,127,128,128,126,125,126,127,129,0
12091,127,125,128,127,127,124,126,128,0
12094,127,128,128,127,128,126,128,127,0
12097,126,128,126,128,128,128,128,128,0
12100,127,128,127,129,127,127,128,128,0
12103,127,128,127,128,125,124,127,127,0
12107,127,127,127,126,127,127,127,127,0
12110,127,128,127,129,127,128,127,127,0
12113,128,128,127,128,128,128,127,127,0
12117,127,128,128,127,127,125,123,126,0
12121,130,127,127,130,128,129,123,125,0
12128,131,127,127,127,128,130,129,128,0
12132,127,128,127,126,128,128,128,127,0
12134,127,127,128,125,128,126,128,127,0
12138,126,127,129,126,126,128,129,128,0
12141,128,127,129,128,128,130,128,127,0
12144,129,127,131,127,128,129,128,128,0
12148,128,127,131,126,128,125,127,127,0
12151,129,126,130,127,129,127,128,127,0
12154,127,127,130,128,128,130,128,127,0
12157,127,128,129,128,129,130,129,127,0
12160,128,128,131,128,128,128,123,125,0
12163,130,127,129,130,128,128,123,126,0
12167,131,127,132,128,129,128,129,127,0
12171,127,128,132,128,129,129,129,128,0
12177,126,128,132,127,129,127,129,127,0
12182,126,126,131,125,127,127,129,126,0
12185,127,127,130,127,127,127,128,127,0
12192,128,128,128,128,127,129,128,127,0
12194,128,127,128,128,127,126,128,127,0
12198,126,127,127,128,128,127,129,127,0
12201,128,127,125,128,128,127,128,127,0
12204,129,129,124,128,129,129,129,127,0
12208,127,128,124,128,128,129,126,126,0
12211,130,127,123,130,128,129,125,125,0
12221,129,126,124,129,126,126,130,128,0
12226,128,128,124,127,129,130,130,128,0
12229,126,128,124,127,128,128,131,128,0
12233,127,128,127,126,129,128,131,128,0
12237,128,128,128,127,128,128,130,129,0
12242,128,129,129,127,127,128,130,129,0
12246,127,128,128,127,128,127,131,127,0
12250,127,127,129,126,129,128,131,128,0
12252,127,128,130,127,130,128,130,128,0
12255,128,129,130,127,129,130,130,128,0
12258,128,128,130,127,129,127,131,126,0
12263,128,127,133,130,128,127,125,126,0
12267,131,127,132,130,127,126,130,128,0
12270,127,128,131,128,131,128,131,128,0
12274,126,128,132,126,129,128,129,128,0
12277,127,127,133,126,128,126,130,127,0
12280,126,126,131,126,130,127,128,127,0
12285,128,129,130,127,127,128,128,127,0
12289,126,128,129,128,128,128,127,128,0
12295,127,127,129,127,122,126,123,126,0
12299,129,127,128,130,128,128,121,126,0
12302,128,127,126,127,131,128,126,128,0
12306,126,129,126,127,126,127,126,127,0
12309,127,127,125,126,126,125,126,127,0
12312,126,127,125,127,129,126,125,128,0
12314,126,128,125,129,126,127,124,129,0
12317,127,128,125,128,126,127,125,128,0
12320,126,126,126,127,125,124,120,126,0
12323,129,127,124,129,126,127,120,126,0
12326,130,125,126,126,126,128,126,128,0
12329,128,127,123,126,127,126,126,128,0
12331,127,128,124,125,126,126,126,128,0
12337,126,127,124,125,126,126,126,128,0
12343,127,128,124,128,125,126,126,128,0
12346,127,128,125,127,124,128,126,128,0
12350,127,127,125,127,124,125,128,128,0
12353,128,126,124,131,125,128,123,126,0
12356,130,126,124,128,127,129,128,129,0
12359,127,129,123,128,126,128,128,128,0
12362,127,127,125,126,127,127,129,128,0
12373,127,127,126,126,127,127,129,129,0
12376,127,128,126,128,127,128,129,128,0
12379,127,128,126,128,126,129,129,128,0
12383,127,127,128,127,126,124,125,126,0
12388,130,127,128,130,127,128,124,127,0
12391,129,127,128,126,129,129,130,128,0
12394,128,129,129,127,129,130,130,128,0
12400,127,129,129,127,129,129,130,128,0
12410,126,127,129,126,129,127,130,129,0
12414,127,129,127,127,129,129,129,128,0
12418,126,128,128,128,129,129,130,128,0
12422,126,128,127,126,125,126,129,128,0
12425,126,127,126,130,128,128,125,126,0
12428,130,128,126,130,127,126,130,128,0
12432,127,129,125,127,128,130,130,128,0
12435,127,128,125,127,128,128,131,128,0
12445,127,128,125,127,126,126,129,129,0
12450,128,128,125,127,128,128,129,128,0
12453,128,129,123,128,128,128,129,128,0
12457,127,128,122,127,127,126,128,127,0
12460,127,126,124,130,127,127,124,126,0
12464,130,127,123,129,127,126,132,129,0
12469,127,128,121,128,130,130,130,128,0
12473,127,128,121,125,129,129,130,128,0
12477,127,128,123,128,127,129,124,127,0
12480,130,127,124,130,128,128,131,129,0
12483,128,128,122,127,130,130,131,129,0
12530,127,128,123,125,129,128,131,128,0
12542,126,128,124,125,128,128,131,128,0
12549,126,127,124,126,129,128,129,128,0
12555,127,128,124,128,128,130,128,128,0
12561,127,128,125,128,126,125,129,128,0
12595,125,127,127,131,129,129,124,126,0
12606,130,126,128,130,127,130,124,127,0
12617,127,129,126,126,126,131,131,128,0
12661,127,128,127,125,127,128,130,128,0
12668,127,128,130,126,127,128,130,127,0
12676,127,128,130,128,131,129,128,128,0
12684,127,128,129,126,131,128,129,128,0
12688,127,128,129,128,128,128,129,128,0
12735,127,127,131,131,131,128,124,127,0
12747,130,126,133,131,130,127,123,127,0
12755,127,126,133,128,130,128,129,128,0
12799,127,127,133,127,129,129,130,129,0
