Start Recording
16,128,127,129,128,123,125,127,128,0
20,127,127,128,128,126,129,123,126,0
23,131,126,127,131,128,129,124,127,0
27,129,126,127,129,126,127,126,127,0
30,126,127,126,130,130,128,124,126,0
34,129,127,126,130,130,127,128,128,0
37,129,128,127,126,131,130,132,129,0
40,125,128,127,126,128,128,129,128,0
48,127,128,128,124,126,127,129,128,0
52,126,127,129,124,127,128,129,128,0
55,126,127,128,125,127,128,128,128,0
59,127,128,128,126,127,128,129,128,0
62,125,128,127,127,126,124,128,127,0
65,128,127,128,127,127,124,128,128,0
69,126,128,127,126,128,128,128,128,0
72,127,128,127,129,128,128,129,128,0
74,127,127,128,134,129,128,124,126,0
79,130,127,128,131,129,129,123,127,0
99,130,128,126,129,127,128,130,128,0
103,127,129,128,128,129,129,129,128,0
106,127,127,127,127,130,127,129,128,0
109,127,127,131,126,127,126,128,128,0
113,130,128,127,127,128,127,129,127,0
117,128,128,125,127,128,128,129,128,0
121,128,127,128,126,126,128,129,128,0
124,127,126,129,128,126,124,128,129,0
127,127,127,129,127,129,129,128,128,0
132,128,129,128,128,128,128,128,128,0
134,126,128,126,128,125,128,123,126,0
137,128,126,127,130,129,128,124,126,0
141,130,127,128,129,126,125,130,128,0
144,129,129,129,127,127,130,132,127,0
148,127,128,132,125,126,128,130,128,0
151,126,127,127,128,127,127,129,128,0
155,128,126,128,126,128,128,128,127,0
158,127,128,128,129,129,130,129,128,0
161,127,128,127,129,129,127,128,128,0
163,127,127,129,128,126,126,128,127,0
167,127,127,131,128,128,127,126,128,0
170,128,128,128,129,128,127,128,127,0
174,128,128,127,127,123,129,123,125,0
176,130,127,127,131,129,128,123,126,0
180,130,127,126,130,126,124,130,128,0
183,128,129,127,124,128,127,129,127,0
186,126,128,127,128,131,127,128,127,0
199,124,125,127,128,130,125,128,127,0
203,127,128,128,128,129,126,128,128,0
211,127,127,128,128,128,127,128,128,0
215,127,128,127,126,127,127,128,128,0
218,126,125,127,126,127,125,127,128,0
222,127,127,127,127,128,127,127,128,0
225,127,128,126,129,128,128,128,128,0
228,127,129,127,128,126,128,123,127,0
234,128,127,127,130,128,128,123,126,0
238,131,127,128,130,129,129,124,127,0
241,129,128,128,126,127,129,130,127,0
243,128,129,127,125,127,127,129,129,0
246,129,128,127,124,127,126,127,128,0
249,128,126,131,125,128,129,128,127,0
252,128,128,128,127,128,128,128,129,0
256,126,128,128,129,131,128,128,129,0
259,125,128,128,125,125,127,128,128,0
262,128,128,130,126,128,127,129,128,0
266,126,128,127,128,128,128,128,127,0
269,127,128,127,128,127,124,128,127,0
272,127,126,126,130,129,128,123,127,0
274,131,127,127,130,128,128,124,126,0
282,128,127,126,125,128,131,131,129,0
285,127,129,126,127,131,128,129,128,0
288,127,128,127,127,128,126,130,129,0
291,127,127,130,125,124,127,128,128,0
294,127,128,127,126,127,128,129,128,0
297,127,128,128,126,128,128,129,127,0
301,126,127,127,125,127,127,127,128,0
337,127,127,129,127,125,128,128,127,0
344,127,128,127,128,128,129,129,128,0
351,128,128,127,128,128,128,127,128,0
358,127,126,126,126,127,126,127,126,0
362,130,126,127,131,128,127,122,125,0
365,130,127,126,128,126,128,130,128,0
369,128,128,127,126,127,128,128,129,0
372,128,128,128,127,126,128,128,129,0
376,127,127,128,125,127,127,128,128,0
379,128,127,127,127,129,128,128,127,0
383,127,128,128,129,128,128,127,127,0
386,125,128,126,128,129,126,125,128,0
390,128,128,128,126,124,128,128,126,0
392,129,127,128,131,128,128,125,125,0
395,127,128,127,128,128,128,129,128,0
398,127,129,128,127,126,127,128,129,0
401,128,128,128,127,129,124,129,128,0
405,127,128,127,128,129,127,128,128,0
407,128,129,126,128,128,128,129,129,0
410,127,128,127,127,122,127,123,126,0
413,130,126,127,129,128,128,123,126,0
416,130,127,127,131,129,130,126,128,0
420,126,128,127,125,127,128,129,128,0
423,130,127,129,124,121,127,128,126,0
427,126,126,129,127,126,127,128,127,0
430,127,126,129,128,128,128,129,128,0
433,127,128,127,126,127,129,129,127,0
436,127,128,128,126,128,127,129,128,0
440,125,128,128,125,125,127,127,128,0
443,128,127,128,128,128,126,127,128,0
448,128,128,127,128,128,129,127,129,0
452,127,128,128,127,126,126,125,127,0
458,127,127,129,127,126,127,125,126,0
461,130,128,127,131,129,128,123,125,0
464,129,129,126,128,129,129,129,128,0
467,127,129,126,125,128,128,129,128,0
471,126,128,127,126,125,127,128,128,0
474,127,128,128,127,127,127,129,128,0
476,128,128,126,128,127,127,128,128,0
479,127,129,126,129,127,127,128,127,0
482,128,126,128,129,124,127,123,125,0
485,129,126,126,131,129,130,124,127,0
487,127,128,128,126,128,130,130,128,0
493,127,128,127,127,127,128,128,128,0
496,127,128,130,127,127,125,125,127,0
499,129,126,128,129,126,127,125,127,0
502,130,128,127,128,127,129,129,129,0
506,128,128,127,126,127,127,128,128,0
526,127,127,129,127,127,126,129,128,0
534,127,127,128,125,128,127,128,128,0
540,128,128,128,126,129,128,128,128,0
544,128,128,127,128,127,127,128,128,0
547,127,127,128,128,126,126,127,127,0
551,126,127,129,130,126,128,123,126,0
555,130,127,127,131,125,128,130,128,0
559,128,129,128,128,127,128,128,128,0
563,128,127,127,126,127,126,127,128,0
566,126,127,129,126,127,127,129,128,0
570,127,128,127,129,129,129,128,128,0
573,127,129,127,128,129,128,128,128,0
577,125,128,127,128,129,128,127,128,0
582,126,126,127,127,127,126,128,128,0
586,128,128,128,127,126,128,127,127,0
589,128,128,127,126,125,127,128,128,0
592,129,125,126,131,129,129,123,126,0
595,129,127,126,130,130,129,124,126,0
599,129,127,125,127,124,130,129,128,0
602,127,128,126,126,129,129,129,128,0
605,127,128,126,125,128,127,129,128,0
608,124,127,127,127,128,127,128,127,0
611,129,128,127,128,127,127,128,127,0
614,127,128,126,126,128,127,129,128,0
618,126,128,128,128,128,127,127,127,0
620,127,127,128,127,126,127,127,128,0
623,127,127,128,128,128,128,128,128,0
626,126,129,126,127,127,129,128,128,0
633,130,126,127,130,129,129,124,126,0
630,126,127,128,132,129,129,124,127,0
678,131,127,126,129,121,129,131,129,0
685,130,127,128,128,127,127,129,128,0
689,127,128,129,126,127,127,129,127,0
696,127,128,128,128,127,125,129,128,0
701,127,127,128,128,128,127,127,128,0
747,127,128,129,125,128,128,129,128,0
754,127,128,128,126,125,124,128,127,0
759,127,128,130,126,127,126,127,128,0
828,127,128,128,127,127,128,128,127,0
814,127,128,129,128,126,129,128,128,0
833,128,128,129,126,127,127,128,127,0
836,130,127,127,130,128,128,123,126,0
840,130,126,128,128,129,130,125,126,0
883,126,128,128,124,127,128,129,126,0
892,126,127,128,126,130,128,129,128,0
897,125,127,129,124,127,127,127,128,0
901,127,126,129,127,128,128,129,128,0
905,127,128,129,126,127,128,128,128,0
909,127,128,128,126,129,128,128,128,0
912,127,127,128,126,127,127,128,128,0
915,127,127,128,127,128,127,128,127,0
919,127,128,128,128,127,128,128,128,0
922,127,128,128,131,127,124,127,128,0
925,127,128,127,131,128,128,122,127,0
929,130,126,127,131,129,127,126,127,0
933,127,128,128,128,130,128,129,128,0
936,127,128,128,125,128,127,128,128,0
940,127,128,127,127,127,127,128,127,0
948,127,128,128,126,127,127,127,127,0
952,128,127,127,127,126,128,128,128,0
956,127,128,127,128,127,128,127,129,0
960,127,127,128,127,125,126,128,128,0
963,127,127,126,128,126,127,128,128,0
966,127,128,126,129,128,129,128,128,0
971,128,128,127,128,126,128,129,127,0
974,127,128,127,129,128,128,123,126,0
976,129,127,127,131,130,129,124,126,0
980,130,127,127,130,122,129,131,128,0
983,127,128,127,127,127,128,129,128,0
986,127,128,125,125,128,128,129,128,0
991,127,128,128,125,128,129,128,127,0
998,127,128,127,127,129,128,129,128,0
1001,127,128,127,126,128,128,129,128,0
1004,127,127,127,125,127,126,129,127,0
1006,129,126,128,126,129,128,129,128,0
1009,128,128,128,128,127,126,127,127,0
1012,129,128,127,128,128,128,127,127,0
1015,128,126,128,127,126,127,123,126,0
1018,130,126,128,130,129,128,123,126,0
1021,130,127,128,129,123,127,130,128,0
1024,128,128,126,127,128,127,129,128,0
1027,127,128,127,125,129,127,129,128,0
1030,128,127,129,125,128,127,129,128,0
1033,127,127,127,127,127,129,128,128,0
1036,128,128,128,127,128,128,128,128,0
1039,126,128,128,128,127,127,128,127,0
1042,127,127,128,128,125,126,129,127,0
1045,125,127,127,128,128,129,128,128,0
1048,127,128,127,129,128,128,128,127,0
1051,127,128,127,129,126,126,129,128,0
1055,128,126,128,128,125,125,124,126,0
1057,130,127,125,131,128,130,124,127,0
1061,129,125,128,127,127,130,129,128,0
1063,128,128,126,126,128,128,129,128,0
1066,127,128,129,126,129,127,128,128,0
1071,127,128,127,128,129,128,128,129,0
1075,127,128,127,129,128,129,128,128,0
1078,126,128,127,129,124,124,129,128,0
1081,127,127,128,130,129,129,123,126,0
1085,129,127,126,130,130,130,124,127,0
1089,126,128,126,127,132,129,131,129,0
1092,127,128,127,127,129,127,129,128,0
1096,126,127,129,128,129,127,130,127,0
1099,127,127,129,126,128,129,128,128,0
1102,128,129,130,129,128,127,129,128,0
1106,128,128,128,126,127,127,128,128,0
1110,127,127,127,126,125,127,128,127,0
1113,126,127,128,128,125,128,123,126,0
1116,130,127,128,127,129,128,128,127,0
1121,128,127,128,126,128,127,128,127,0
1124,126,126,127,125,127,125,127,127,0
1127,126,124,127,130,129,129,123,126,0
1130,130,128,127,128,130,129,131,128,0
1133,126,127,128,128,130,127,129,128,0
1136,127,126,127,128,127,126,129,128,0
1138,127,126,128,126,127,127,128,128,0
1141,127,128,126,126,128,128,128,128,0
1144,127,128,127,127,127,128,129,128,0
1146,126,127,128,131,127,127,122,126,0
1150,130,127,127,131,127,129,123,126,0
1153,126,128,127,128,130,128,130,129,0
1156,126,128,129,128,130,129,128,129,0
1159,126,126,129,127,127,128,129,128,0
1162,127,126,128,128,129,126,127,129,0
1166,127,128,127,129,131,130,128,129,0
1170,127,128,127,128,127,130,129,128,0
1173,126,127,130,126,128,127,130,128,0
1176,126,126,128,127,127,127,128,127,0
1181,127,128,127,128,129,129,128,128,0
1185,127,128,127,127,127,128,128,128,0
1190,128,127,127,127,128,125,127,127,0
1193,130,127,127,130,129,128,122,127,0
1195,131,128,127,130,124,128,129,128,0
1199,127,129,128,127,128,128,129,128,0
1201,126,128,127,126,127,126,128,128,0
1204,127,126,128,126,128,126,129,128,0
1207,126,128,127,127,129,127,128,128,0
1210,127,128,126,129,128,127,128,129,0
1215,126,128,128,129,125,127,127,127,0
1219,127,128,128,128,128,125,128,128,0
1221,127,126,127,127,129,128,127,128,0
1224,127,128,127,128,128,129,128,128,0
1227,127,127,127,128,126,125,123,125,0
1230,130,127,127,131,128,129,123,126,0
1233,130,127,127,129,122,129,128,128,0
1236,128,128,126,126,127,128,128,128,0
1238,125,127,126,125,128,128,128,128,0
1241,127,127,128,125,128,126,128,127,0
1244,128,127,128,127,128,128,128,128,0
1247,127,127,128,128,129,129,128,128,0
1250,127,127,126,128,128,126,128,126,0
1253,127,127,129,130,128,129,123,127,0
1256,129,128,127,130,124,128,129,128,0
1259,127,128,128,128,128,129,129,129,0
1262,127,128,127,126,128,127,129,128,0
1265,127,127,129,128,127,126,128,128,0
1268,128,127,128,128,127,127,128,128,0
1271,128,128,128,128,127,128,128,128,0
1274,127,127,127,128,125,126,127,128,0
1279,127,127,129,129,125,126,128,128,0
1284,127,128,129,129,126,126,128,128,0
1287,128,128,128,128,128,129,129,128,0
1291,126,128,127,128,125,126,126,128,0
1294,130,128,126,129,130,129,124,125,0
1297,130,127,127,130,130,129,124,126,0
1301,128,127,126,127,129,129,131,129,0
1304,128,127,128,126,123,128,129,128,0
1307,126,128,128,126,131,127,128,128,0
1310,130,127,127,125,130,128,128,128,0
1313,128,128,129,128,127,128,129,128,0
1316,126,128,127,128,128,128,128,128,0
1320,126,126,128,127,128,127,128,128,0
1323,127,127,129,126,128,128,128,127,0
1326,127,128,128,128,129,129,129,127,0
1329,128,127,127,128,127,126,128,128,0
1332,127,127,128,129,128,128,123,127,0
1335,128,127,127,130,129,129,125,125,0
1339,128,127,128,128,126,127,128,128,0
1342,128,128,127,127,127,126,129,127,0
1345,127,127,128,126,127,126,128,127,0
1348,127,128,128,125,128,127,128,128,0
1351,127,127,126,128,126,127,128,128,0
1354,128,128,127,127,126,127,127,127,0
1358,127,127,127,126,126,125,129,128,0
1361,128,127,127,128,126,127,128,128,0
1363,129,128,128,128,127,128,128,127,0
1366,128,129,128,128,126,127,128,127,0
1370,128,127,127,127,127,125,128,127,0
1374,127,127,128,127,129,129,124,126,0
1378,130,128,125,131,129,129,123,126,0
1382,129,127,126,127,130,129,129,128,0
1385,127,128,126,126,129,126,128,127,0
1388,127,128,127,128,129,126,127,128,0
1391,128,128,127,128,129,128,127,128,0
1394,127,128,126,128,128,129,128,127,0
1397,126,128,126,128,127,125,127,128,0
1400,127,127,127,126,125,125,127,128,0
1404,129,128,128,127,127,129,127,127,0
1407,128,128,127,127,127,129,128,128,0
1410,126,127,127,128,124,126,125,125,0
1413,130,128,127,130,128,128,124,126,0
1420,130,127,126,131,129,129,124,127,0
1422,128,128,127,125,126,128,129,128,0
1426,127,128,128,125,127,126,129,128,0
1429,127,127,126,126,126,127,128,126,0
1432,127,127,127,129,124,125,128,128,0
1436,127,129,128,128,128,127,129,128,0
1439,127,128,128,128,127,129,128,128,0
1443,127,126,128,130,127,128,125,126,0
1446,128,128,128,129,127,126,130,129,0
1450,127,128,128,127,129,129,130,128,0
1453,127,129,128,125,127,128,129,128,0
1456,127,128,131,126,128,128,128,127,0
1462,128,129,128,128,123,128,128,128,0
1459,126,127,128,126,129,128,128,128,0
1470,128,128,128,127,125,127,126,127,0
1475,129,127,127,130,129,128,123,126,0
1480,130,126,128,131,126,126,131,129,0
1484,127,128,127,126,128,130,129,128,0
1489,129,128,128,127,127,128,128,128,0
1493,126,127,128,127,126,128,128,128,0
1496,127,127,127,128,129,128,128,128,0
1500,127,127,127,127,128,129,128,128,0
1503,127,128,128,128,127,128,128,128,0
1507,126,127,129,126,129,127,129,128,0
1510,126,128,128,126,128,126,127,128,0
1513,129,128,128,128,127,128,128,128,0
1515,129,128,128,127,126,128,127,125,0
1520,130,127,126,130,128,128,123,126,0
1522,131,127,126,131,129,126,126,128,0
1526,127,129,126,126,128,129,129,128,0
1530,127,128,125,126,127,127,129,128,0
1533,127,127,128,128,129,125,129,128,0
1536,128,128,127,128,126,128,128,128,0
1540,127,128,127,127,127,128,128,128,0
1544,127,129,127,127,127,128,128,128,0
1548,125,127,127,126,126,127,128,127,0
1552,129,127,127,133,130,129,124,127,0
1555,129,127,128,129,128,128,129,128,0
1558,127,128,129,126,129,129,129,128,0
1562,126,128,128,126,128,127,130,129,0
1565,126,126,128,128,127,128,128,128,0
1568,127,127,127,127,127,128,129,128,0
1571,127,128,127,127,126,128,128,128,0
1574,127,128,128,128,125,125,126,127,0
1578,129,127,126,131,128,128,124,126,0
1581,131,128,127,130,124,129,130,128,0
1586,126,128,129,127,128,128,129,128,0
1592,127,127,129,127,127,125,128,128,0
1595,127,125,129,127,129,128,130,129,0
1599,127,129,127,128,128,128,128,128,0
1603,128,128,127,128,129,127,128,129,0
1606,127,128,128,127,129,124,129,128,0
1610,127,128,127,125,127,125,125,128,0
1614,128,128,128,128,130,128,128,128,0
1619,127,128,127,126,130,127,128,127,0
1622,127,126,127,130,129,129,123,126,0
1625,130,128,127,131,129,128,123,126,0
1628,129,127,126,128,130,128,130,128,0
1632,129,129,128,127,127,127,129,128,0
1634,128,128,129,126,125,127,130,128,0
1637,127,126,128,127,125,127,128,127,0
1640,126,126,127,128,127,129,128,128,0
1643,127,128,128,126,127,128,128,128,0
1646,126,128,128,130,126,126,124,127,0
1649,128,127,128,128,125,127,124,127,0
1653,128,127,129,127,130,128,130,128,0
1656,127,129,128,124,126,128,130,128,0
1658,127,128,128,127,131,128,130,127,0
1661,126,128,129,125,125,126,127,128,0
1664,129,128,130,127,127,129,127,128,0
1667,127,129,128,129,125,128,127,128,0
1670,126,128,128,128,126,127,127,127,0
1673,127,127,130,127,128,127,128,128,0
1676,126,127,128,128,127,128,128,128,0
1680,127,128,126,128,127,128,128,128,0
1685,127,128,128,127,124,126,128,127,0
1690,130,127,125,130,130,129,124,126,0
1694,130,126,126,130,129,127,126,129,0
1698,128,128,127,125,128,128,129,128,0
1701,128,128,128,124,126,127,128,128,0
1704,128,128,128,127,131,127,128,128,0
1706,128,128,129,126,126,128,129,127,0
1709,127,128,126,127,127,127,128,128,0
1712,126,127,126,127,128,126,127,127,0
1715,129,126,128,130,126,126,124,127,0
1718,128,127,127,129,126,128,125,127,0
1720,127,128,128,127,127,128,128,128,0
1724,129,129,126,126,130,128,128,128,0
1727,127,128,126,126,127,125,128,128,0
1730,126,127,127,129,127,128,129,127,0
1733,127,127,127,129,127,128,129,127,0
1736,128,128,128,128,127,127,127,127,0
1741,127,127,128,128,123,125,127,127,0
1744,128,126,128,126,126,129,129,128,0
1747,128,128,128,128,127,130,128,128,0
1750,127,128,127,128,128,127,127,127,0
1753,127,127,129,130,128,128,122,126,0
1756,129,126,127,130,128,130,124,127,0
1759,128,127,129,126,131,129,130,128,0
1762,128,129,127,126,127,128,129,128,0
1765,127,128,131,125,128,126,129,127,0
1768,127,127,130,125,125,126,128,127,0
1770,128,127,128,128,126,128,128,127,0
1774,127,128,129,128,127,128,128,127,0
1777,127,128,127,127,121,126,126,126,0
1781,126,128,128,129,128,125,127,128,0
1785,126,128,127,128,128,128,128,128,0
1789,127,128,127,128,126,127,127,127,0
1794,127,128,127,128,123,125,128,127,0
1799,130,127,126,131,129,128,124,126,0
1802,130,127,127,130,125,127,130,128,0
1805,127,128,126,125,129,129,128,128,0
1808,127,127,127,126,130,128,129,128,0
1811,127,127,129,128,127,128,129,128,0
1814,127,127,128,126,129,129,128,128,0
1817,128,128,127,127,128,129,128,128,0
1820,128,128,128,127,127,124,126,128,0
1823,128,125,126,131,130,128,124,126,0
1826,129,126,127,127,129,129,128,128,0
1830,128,128,127,128,129,130,128,128,0
1833,128,127,127,127,128,128,128,128,0
1836,127,126,128,127,127,125,127,127,0
1839,127,127,128,127,127,128,127,128,0
1842,128,128,129,128,127,128,129,128,0
1846,127,127,128,127,128,127,129,128,0
1851,126,126,128,130,128,129,124,127,0
1854,130,127,126,132,128,126,129,128,0
1857,127,128,126,126,128,128,129,128,0
1860,127,128,128,127,126,127,128,128,0
1863,126,127,127,126,128,126,128,128,0
1865,127,127,127,126,127,128,128,128,0
1869,128,128,127,127,128,129,129,129,0
1872,127,128,128,127,128,125,126,127,0
1881,129,126,128,131,130,128,124,126,0
1885,130,126,129,130,130,127,129,128,0
1889,127,128,129,128,131,130,130,128,0
1893,127,128,126,125,131,127,130,128,0
1899,127,128,128,127,128,125,128,127,0
1903,127,128,129,127,125,127,129,128,0
1908,127,128,128,128,125,128,129,128,0
1913,127,128,127,128,127,127,129,128,0
1916,125,127,128,126,127,127,127,127,0
1920,126,127,128,127,127,127,127,128,0
1923,128,128,128,129,128,128,128,128,0
1926,127,128,128,127,127,127,128,127,0
1930,129,127,128,130,131,128,124,126,0
1933,130,127,126,130,128,126,128,128,0
1937,127,128,128,127,127,128,128,127,0
1940,130,129,127,125,128,127,130,128,0
1943,127,128,128,127,126,126,130,127,0
1947,127,128,129,126,130,129,129,127,0
1954,127,128,128,128,128,129,129,128,0
1957,127,128,127,128,128,128,129,128,0
1962,127,127,128,130,128,128,123,126,0
1966,130,127,127,129,128,130,124,126,0
1969,127,128,127,125,127,129,128,128,0
1973,127,128,126,125,126,128,129,128,0
1976,126,128,129,125,127,127,129,127,0
1980,126,128,127,125,127,128,129,128,0
1989,126,128,127,126,128,127,128,128,0
1993,127,129,127,128,127,128,128,127,0
1997,127,128,127,126,127,125,128,128,0
2000,126,126,128,128,128,127,127,128,0
2004,127,125,128,128,128,129,128,129,0
2007,127,128,128,128,128,128,127,128,0
2011,127,126,128,127,126,129,122,126,0
2017,129,127,127,132,129,128,124,126,0
2025,129,127,128,129,130,129,129,128,0
2029,126,128,127,130,131,129,129,129,0
2033,126,127,129,126,126,127,129,128,0
2036,127,127,128,128,128,128,129,128,0
2040,126,128,128,129,131,129,129,128,0
2043,126,128,125,125,128,129,129,128,0
2046,126,127,127,128,127,125,129,128,0
2050,126,127,126,131,128,129,124,126,0
2053,130,127,127,129,124,128,129,128,0
2056,128,129,127,126,129,128,129,127,0
2060,127,127,127,125,125,125,128,128,0
2065,124,126,127,126,126,126,128,128,0
2068,128,128,127,126,127,127,127,128,0
2071,126,129,127,128,126,128,128,128,0
2074,126,128,126,125,126,127,128,127,0
2078,129,127,127,130,128,129,123,126,0
2081,130,127,126,129,124,129,128,128,0
2084,127,128,127,127,128,130,129,128,0
2087,127,129,130,127,131,128,130,128,0
2099,127,128,129,125,128,128,129,127,0
2104,128,128,128,126,126,127,127,129,0
2108,128,127,126,126,127,128,129,129,0
2112,126,127,127,125,126,126,128,128,0
2115,128,127,127,130,129,129,123,126,0
2118,130,127,127,129,129,126,129,128,0
2121,127,128,128,127,127,127,128,128,0
2124,126,128,127,126,129,126,129,127,0
2128,127,125,128,126,129,125,129,128,0
2131,128,126,130,126,123,126,128,127,0
2137,130,128,128,126,126,127,128,127,0
2143,129,128,128,124,126,127,128,128,0
2146,127,127,130,126,120,125,122,126,0
2149,128,127,126,132,129,130,123,126,0
2152,128,128,128,128,126,129,130,128,0
2155,127,128,129,128,128,128,130,128,0
2176,126,127,130,128,127,128,128,127,0
2180,124,127,127,128,130,131,128,128,0
2185,127,127,127,127,128,129,128,127,0
2189,127,127,128,129,128,128,129,126,0
2192,128,126,126,129,127,126,125,126,0
2196,129,127,127,129,127,128,125,126,0
2200,130,129,130,126,126,128,130,128,0
2206,127,128,128,125,129,128,130,128,0
2210,127,126,127,127,126,126,128,128,0
2216,128,128,128,125,129,128,128,128,0
2220,127,128,128,127,126,129,128,127,0
2223,127,128,127,127,126,128,129,128,0
2227,126,127,128,130,126,126,125,126,0
2230,128,127,127,129,127,127,124,127,0
2233,128,127,127,128,131,130,129,128,0
2237,127,128,126,126,128,128,128,128,0
2240,127,129,129,126,125,126,128,127,0
2243,126,127,126,126,128,128,128,128,0
2247,127,128,128,128,125,128,127,128,0
2250,127,128,127,128,127,127,128,128,0
2253,126,128,128,130,124,126,124,126,0
2256,128,126,128,130,128,128,125,127,0
2260,129,127,128,128,127,129,129,128,0
2264,126,128,127,129,127,128,129,128,0
2269,127,128,127,128,127,127,128,127,0
2275,127,127,129,128,129,128,129,128,0
2277,127,127,127,129,129,128,129,128,0
2280,127,127,127,129,129,127,128,127,0
2283,127,127,128,128,127,124,128,127,0
2287,128,128,128,128,125,124,127,127,0
2290,128,128,129,128,125,127,128,127,0
2294,128,128,128,129,127,126,128,126,0
2297,128,128,128,129,129,127,123,125,0
2300,129,127,126,130,130,129,124,126,0
2304,129,127,128,128,129,129,129,128,0
2307,127,128,127,128,129,129,130,128,0
2310,127,128,128,125,128,128,130,128,0
2314,126,127,128,124,128,127,129,128,0
2317,127,127,127,127,128,128,127,128,0
2321,127,127,128,127,127,128,129,128,0
2326,127,127,128,128,127,123,128,127,0
2330,127,127,128,128,122,126,129,127,0
2333,127,127,128,128,127,129,128,128,0
2337,128,128,126,127,128,128,128,128,0
2340,126,128,127,127,125,124,123,126,0
2344,129,127,127,129,129,129,124,125,0
2347,131,127,126,128,123,129,129,128,0
2350,128,129,127,127,128,130,129,128,0
2364,127,128,127,125,128,127,129,128,0
2367,127,127,128,125,128,128,128,128,0
2374,126,127,130,129,129,128,129,128,0
2381,127,128,128,128,127,128,128,127,0
2378,128,128,127,128,128,129,127,128,0
2388,125,128,127,127,128,127,127,127,0
2391,128,127,129,127,128,128,128,128,0
2395,126,128,127,128,130,127,128,128,0
2398,127,128,128,126,127,126,127,127,0
2402,126,127,128,126,126,128,123,126,0
2405,130,127,129,129,129,128,125,126,0
2408,129,128,128,125,129,128,129,128,0
2412,127,128,127,127,128,126,129,128,0
2415,127,128,127,126,127,127,128,127,0
2418,128,127,129,127,127,128,128,129,0
2422,128,129,128,127,128,129,127,128,0
2425,127,129,128,126,127,128,128,125,0
2428,130,128,126,131,129,129,123,126,0
2432,129,126,127,129,129,129,125,127,0
2435,127,128,128,126,128,129,130,129,0
2438,126,128,126,128,130,127,130,128,0
2444,126,127,127,126,126,127,129,128,0
2448,127,127,128,128,126,126,128,127,0
2451,127,127,124,126,128,128,129,128,0
2454,127,128,126,128,127,127,128,128,0
2457,127,127,126,128,127,126,128,128,0
2461,127,127,126,128,127,128,128,128,0
2464,128,128,127,127,127,129,128,129,0
2468,127,128,126,127,126,126,127,127,0
2471,125,127,126,130,129,128,123,126,0
2475,130,126,127,131,130,128,124,127,0
2477,128,128,127,125,131,129,129,128,0
2494,127,128,128,128,130,127,128,128,0
2498,126,128,128,127,131,127,130,128,0
2504,127,127,128,125,129,128,128,127,0
2509,127,128,129,127,127,128,128,128,0
2516,127,128,128,128,128,129,128,128,0
2522,128,128,129,127,128,127,129,128,0
2526,126,127,130,129,128,130,123,126,0
2529,129,127,127,130,122,129,128,128,0
2533,128,129,127,126,129,128,129,128,0
2536,126,127,128,126,128,127,129,127,0
2540,126,126,128,127,129,127,129,128,0
2543,127,128,127,127,130,129,129,127,0
2546,128,128,128,128,128,128,129,127,0
2550,126,128,128,126,126,127,128,128,0
2553,127,126,128,130,130,128,124,126,0
2557,130,127,127,131,128,127,129,128,0
2562,127,128,128,126,129,128,129,128,0
2565,127,128,126,128,128,128,129,127,0
2571,127,127,127,126,127,127,129,127,0
2575,127,128,127,128,127,128,128,128,0
2579,127,128,127,129,126,129,128,128,0
2582,128,128,127,128,125,126,128,127,0
2585,127,126,127,126,124,127,127,128,0
2589,128,128,127,128,127,127,128,128,0
2592,127,129,126,128,126,126,128,128,0
2596,128,128,127,127,124,125,128,128,0
2599,126,125,126,130,132,128,124,126,0
2603,130,127,126,130,131,130,123,126,0
2606,128,127,127,126,129,128,129,128,0
2610,128,128,127,125,128,127,130,127,0
2613,126,127,127,128,131,128,129,128,0
2618,127,127,128,128,128,128,129,128,0
2621,127,128,128,128,125,128,128,128,0
2625,126,128,127,129,127,127,129,128,0
2629,126,126,128,127,128,125,122,127,0
2634,129,127,127,132,129,130,124,126,0
2638,126,128,130,128,128,130,129,128,0
2641,127,128,127,126,128,128,129,128,0
2645,129,128,130,127,126,127,129,128,0
2648,128,127,128,126,128,127,128,128,0
2655,127,129,129,126,127,128,127,129,0
2658,128,128,128,127,126,126,127,128,0
2661,129,127,127,131,129,127,124,126,0
2663,129,126,129,131,129,128,126,129,0
2666,126,128,132,128,131,130,129,128,0
2670,127,128,128,126,129,128,129,128,0
2674,127,127,131,125,127,127,129,128,0
2677,125,127,129,127,129,129,129,128,0
2689,127,127,126,126,127,128,128,128,0
2693,128,128,127,125,128,128,128,127,0
2696,124,127,127,126,122,127,127,127,0
2700,129,127,129,126,125,124,128,127,0
2704,127,129,125,126,128,129,129,128,0
2707,127,129,126,126,125,127,128,127,0
2710,129,129,125,131,129,129,123,126,0
2713,131,127,125,131,130,129,122,126,0
2725,128,128,124,127,129,129,131,128,0
2729,127,128,127,127,127,127,127,127,0
2733,127,127,124,126,128,129,131,128,0
2736,126,126,125,127,127,130,130,126,0
2740,128,129,124,127,128,128,128,128,0
2743,127,129,125,128,129,130,129,128,0
2747,126,127,126,128,123,128,126,127,0
2752,130,126,128,131,129,129,123,125,0
2758,130,128,128,130,128,126,130,129,0
2762,126,127,128,127,129,129,129,129,0
2765,127,128,129,128,129,128,129,128,0
2769,126,128,129,126,129,126,128,128,0
2772,129,128,129,127,130,127,130,128,0
2775,127,127,129,127,129,129,129,129,0
2778,127,126,130,128,125,129,123,126,0
2782,129,127,130,130,130,129,124,127,0
2785,130,127,129,128,129,129,129,129,0
2788,128,128,129,127,127,128,129,129,0
2791,126,128,129,127,129,126,129,128,0
2794,125,127,131,126,127,126,128,128,0
2797,128,127,128,128,128,129,127,128,0
2808,127,129,129,127,127,128,128,128,0
2812,127,128,131,128,128,125,125,127,0
2815,129,127,127,130,128,128,123,126,0
2820,130,127,128,127,129,129,129,128,0
2824,127,127,128,126,129,130,128,128,0
2827,126,128,128,127,129,127,128,128,0
2831,127,127,129,127,128,127,131,127,0
2834,127,127,128,127,128,130,128,128,0
2838,128,126,127,128,128,130,130,127,0
2841,126,127,128,128,128,127,127,128,0
2845,127,127,129,128,122,123,127,126,0
2849,129,127,127,126,125,126,126,125,0
2852,129,128,128,128,129,128,129,127,0
2856,127,127,125,126,125,125,128,127,0
2861,127,127,128,127,127,122,129,126,0
2864,127,126,128,126,130,127,127,127,0
2867,128,129,126,127,127,127,127,127,0
2875,128,128,127,127,127,125,127,127,0
2879,127,127,128,126,124,123,126,127,0
2896,127,128,127,127,126,126,127,127,0
2900,128,128,127,129,127,129,127,127,0
2905,127,128,128,128,123,126,122,126,0
2909,129,127,126,130,127,127,123,127,0
2912,129,127,127,131,125,123,130,128,0
2915,127,128,129,126,125,127,128,127,0
2919,130,128,129,126,125,126,129,128,0
2922,126,127,128,126,125,126,128,127,0
2925,126,127,128,126,126,128,128,127,0
2929,127,127,128,126,127,128,128,128,0
2932,126,128,127,127,128,127,129,128,0
2935,126,127,128,127,123,125,127,128,0
2938,127,127,129,128,126,126,128,128,0
2941,127,127,129,128,127,129,127,127,0
2945,126,128,128,128,126,127,127,128,0
2948,128,127,129,128,126,126,128,127,0
2951,128,126,130,127,126,126,128,127,0
2955,128,128,127,128,127,128,128,128,0
2959,127,128,128,128,128,128,129,127,0
2962,126,127,128,127,127,127,128,127,0
2965,128,127,129,127,128,128,130,127,0
2969,128,127,128,126,127,129,128,128,0
2973,128,127,130,128,127,128,129,127,0
2976,129,127,128,125,126,126,127,127,0
2981,128,127,129,126,127,125,127,127,0
2985,129,128,127,128,128,127,130,126,0
2988,127,127,127,128,128,127,128,126,0
2992,130,125,126,130,130,129,123,126,0
2995,130,127,126,129,129,129,123,127,0
2999,130,128,126,127,130,129,128,128,0
3004,127,130,126,127,129,128,128,128,0
3007,127,129,126,126,128,127,128,128,0
3017,127,128,127,126,129,127,128,128,0
3022,128,128,125,127,128,128,128,127,0
3025,127,127,125,128,127,127,129,127,0
3029,127,127,125,128,125,125,128,127,0
3032,126,127,126,127,127,127,128,128,0
3035,127,127,125,128,127,127,128,127,0
3039,127,127,125,127,128,128,130,127,0
3042,127,128,125,128,124,127,122,125,0
3045,130,125,125,129,128,129,123,127,0
3049,130,127,124,129,129,128,128,128,0
3055,127,128,125,125,128,129,128,129,0
3059,127,128,125,126,126,129,128,128,0
3062,127,126,125,126,126,127,129,128,0
3065,126,128,126,127,128,129,129,128,0
3068,127,128,126,127,126,128,129,129,0
3071,127,129,127,127,126,127,129,128,0
3075,127,127,129,127,127,127,128,128,0
3078,127,127,127,127,127,128,126,128,0
3082,127,129,128,128,127,127,127,127,0
3092,128,128,129,128,128,129,123,126,0
3096,129,127,128,130,129,129,123,126,0
3100,130,128,127,132,128,128,130,128,0
3104,127,128,130,128,128,130,130,128,0
3107,127,129,129,128,129,129,130,128,0
3111,127,128,129,126,129,129,129,128,0
3114,126,128,128,129,127,128,128,127,0
3120,126,129,129,128,129,130,128,128,0
3124,126,128,129,127,128,127,128,128,0
3130,126,127,129,128,128,126,128,128,0
3134,126,126,128,129,127,129,128,125,0
3138,130,127,128,126,129,128,129,128,0
3141,128,128,127,127,129,128,129,129,0
3145,128,128,128,126,125,126,127,127,0
3148,128,127,127,128,126,128,125,126,0
3152,128,126,129,127,128,130,129,129,0
3155,127,129,125,127,129,128,129,128,0
3159,127,128,128,126,128,127,128,127,0
3162,127,128,128,128,128,126,126,128,0
3166,128,128,127,128,128,128,129,128,0
3169,128,129,128,129,129,127,128,128,0
3183,126,127,128,129,129,128,123,127,0
3187,129,128,126,130,130,127,123,126,0
3190,128,128,126,127,130,129,130,128,0
3194,128,128,128,125,129,127,130,128,0
3197,127,127,127,125,128,126,128,127,0
3200,127,127,127,126,129,129,129,128,0
3204,127,128,127,127,127,128,128,129,0
3207,126,128,127,128,127,128,128,128,0
3210,127,127,128,129,126,127,123,126,0
3214,129,127,127,130,129,128,124,127,0
3217,127,128,127,125,128,129,128,128,0
3222,127,128,128,126,127,129,129,128,0
3226,127,127,127,128,127,128,130,128,0
3229,126,128,127,126,128,128,129,128,0
3232,127,128,127,129,128,128,129,127,0
3235,127,128,128,127,127,127,129,128,0
3241,127,127,127,126,129,123,124,126,0
3245,129,127,126,130,128,129,123,126,0
3249,130,128,127,125,128,128,129,128,0
3260,128,126,128,128,129,128,130,128,0
3264,126,128,126,125,128,127,128,128,0
3268,129,126,131,126,128,127,128,128,0
3271,128,128,129,128,125,128,127,127,0
3275,128,129,127,128,127,129,129,128,0
3278,126,127,128,126,128,125,128,127,0
3281,129,127,128,131,128,128,123,126,0
3285,130,128,129,126,128,129,129,128,0
3288,128,129,128,129,128,129,128,128,0
3291,127,129,128,129,128,128,129,128,0
3300,126,128,129,126,129,128,129,128,0
3304,127,127,128,126,128,128,128,128,0
3308,128,128,128,127,127,128,129,128,0
3311,127,128,129,127,126,127,125,127,0
3314,129,127,128,130,127,128,123,126,0
3318,129,127,129,126,127,128,130,127,0
3321,126,129,128,127,127,127,128,128,0
3325,126,129,126,126,127,127,128,128,0
3328,125,128,127,125,127,127,128,128,0
3332,126,128,127,126,129,128,128,128,0
3335,127,128,127,127,128,128,128,128,0
3339,127,128,127,127,126,127,128,128,0
3342,127,127,128,130,127,128,123,126,0
3344,129,127,126,131,126,128,129,128,0
3347,127,128,127,128,132,128,129,128,0
3350,127,128,127,126,128,127,128,128,0
3353,126,127,127,125,126,126,128,128,0
3357,127,127,127,127,127,128,129,127,0
3360,129,128,128,127,129,128,128,128,0
3371,127,127,125,127,128,126,129,128,0
3375,127,127,130,128,128,126,128,128,0
3379,127,127,129,127,127,126,129,128,0
3385,128,128,127,126,128,128,129,129,0
3390,127,128,127,128,128,126,128,128,0
3393,124,127,126,131,129,128,123,126,0
3397,131,127,126,130,129,129,124,127,0
3400,127,128,127,125,127,128,128,128,0
3406,128,129,128,128,127,127,128,128,0
3410,128,128,127,127,126,126,128,128,0
3414,127,127,128,125,126,127,128,127,0
3417,128,129,127,127,128,129,128,128,0
3422,128,128,129,127,128,127,128,127,0
3425,127,127,127,127,124,128,123,126,0
3428,129,126,128,130,127,129,123,127,0
3434,127,126,131,126,127,127,127,128,0
3446,127,127,126,128,127,128,129,127,0
3450,127,127,130,127,129,126,127,128,0
3454,127,128,128,125,126,128,127,127,0
3459,127,128,127,128,126,128,128,128,0
3462,128,128,127,127,126,127,129,128,0
3466,127,128,128,128,121,125,128,127,0
3469,127,128,131,127,126,125,128,128,0
3473,127,128,128,129,125,130,128,128,0
3476,127,128,126,128,127,128,128,127,0
3480,127,127,129,127,126,128,122,125,0
3483,131,128,127,130,129,129,123,126,0
3489,130,127,127,128,128,128,131,129,0
3493,128,127,128,126,128,127,129,128,0
3496,127,126,129,126,126,126,129,128,0
3500,127,127,127,126,127,127,129,128,0
3503,127,128,127,128,128,128,128,128,0
3508,127,128,127,128,128,128,128,128,0
3515,128,128,128,127,126,127,128,128,0
3518,125,127,128,125,126,128,126,128,0
3522,128,128,128,127,128,129,127,128,0
3525,128,129,129,127,127,128,128,128,0
3529,126,127,128,130,128,128,124,126,0
3532,130,126,127,130,128,128,124,126,0
3535,130,126,130,129,124,129,131,127,0
3539,128,128,128,124,128,128,131,128,0
3542,127,128,127,127,128,127,129,127,0
3546,129,126,129,126,128,127,129,128,0
3549,127,128,129,128,128,127,128,128,0
3553,127,128,127,126,127,128,127,128,0
3561,126,128,128,127,127,127,127,128,0
3565,127,127,127,125,128,127,128,128,0
3568,125,127,127,128,127,128,127,128,0
3572,127,127,127,127,129,128,127,127,0
3575,127,127,127,128,126,127,127,126,0
3579,130,126,128,131,128,127,123,125,0
3582,131,127,127,129,124,126,129,127,0
3585,127,128,130,127,128,127,129,128,0
3589,126,128,129,128,127,126,129,128,0
3592,126,125,129,126,127,127,129,128,0
3596,126,127,127,126,128,128,128,128,0
3605,127,128,126,128,126,128,128,128,0
3608,126,128,127,127,124,126,127,127,0
3612,127,127,127,127,127,125,128,128,0
3615,127,127,127,127,126,128,126,127,0
3619,128,128,126,128,128,129,128,128,0
3622,127,128,126,128,127,127,128,128,0
3626,127,126,127,130,128,128,123,126,0
3632,130,128,126,131,127,128,124,125,0
3642,128,129,125,127,129,128,128,128,0
3645,127,129,126,126,127,127,129,128,0
3649,127,128,127,128,127,126,129,128,0
3652,127,128,126,126,129,129,129,128,0
3655,128,128,127,127,127,129,129,128,0
3659,128,129,127,127,127,127,127,128,0
3662,127,128,128,127,123,124,128,127,0
3665,129,128,126,130,129,130,125,126,0
3669,130,126,128,126,129,130,129,128,0
3672,127,128,127,126,128,128,131,128,0
3678,127,127,125,125,129,127,129,128,0
3681,127,127,129,126,129,129,128,128,0
3685,127,129,129,128,129,128,128,128,0
3688,126,128,126,125,129,128,129,128,0
3691,128,127,127,126,124,129,124,127,0
3695,129,127,127,130,129,128,124,126,0
3698,129,127,128,126,128,128,129,128,0
3701,129,128,128,126,128,129,129,128,0
3704,127,128,128,126,127,125,129,128,0
3717,128,127,129,126,125,127,129,127,0
3721,128,128,129,129,129,129,130,129,0
3725,126,129,128,126,130,128,128,128,0
3734,127,128,129,125,127,123,128,128,0
3737,126,127,128,126,129,127,128,128,0
3743,128,128,129,128,128,129,128,129,0
3746,127,128,129,128,125,128,127,128,0
3749,128,127,127,131,129,129,123,126,0
3753,130,127,128,131,129,130,124,127,0
3758,130,127,127,128,128,132,131,129,0
3763,127,128,127,128,126,130,129,129,0
3767,126,128,127,128,127,121,131,128,0
3770,123,125,127,126,126,127,128,128,0
3773,129,128,131,128,127,129,129,128,0
3777,127,129,126,127,127,127,128,128,0
3780,129,128,127,128,124,126,129,128,0
3783,127,127,126,131,128,128,123,126,0
3786,131,128,126,129,123,129,129,128,0
3790,128,128,127,128,130,130,130,129,0
3793,126,128,128,127,129,128,130,128,0
3797,123,127,128,129,126,127,124,126,0
3800,128,127,127,129,127,130,131,127,0
3803,127,129,127,127,130,128,131,129,0
3806,125,127,128,128,125,127,128,127,0
3808,127,128,130,125,127,125,129,128,0
3812,128,127,131,126,128,128,128,128,0
3817,128,128,131,127,130,129,128,128,0
3820,126,128,128,126,127,125,126,128,0
3822,127,126,129,130,130,129,122,126,0
3829,131,127,129,129,126,124,130,128,0
3833,128,129,128,128,128,128,128,127,0
3835,127,128,128,128,128,125,129,128,0
3838,126,126,130,125,126,126,129,128,0
3842,128,126,129,126,124,126,128,128,0
3845,128,128,128,126,129,128,129,128,0
3847,128,128,127,126,130,126,129,128,0
3850,127,127,126,128,127,127,130,128,0
3870,128,127,127,128,130,129,129,127,0
3877,129,129,127,127,130,129,128,127,0
3881,126,128,127,127,129,125,127,128,0
3888,127,125,127,133,130,128,122,126,0
3892,129,127,126,132,131,129,122,126,0
3896,126,129,127,127,127,127,128,128,0
3899,126,127,127,129,131,126,130,129,0
3903,126,127,130,128,131,127,129,128,0
3906,126,128,130,128,128,127,129,128,0
3909,128,128,127,129,128,128,127,128,0
3913,127,128,128,127,127,127,127,127,0
3916,127,127,128,125,127,126,127,128,0
3919,127,126,129,127,127,127,127,127,0
3923,127,128,130,127,128,128,127,127,0
3926,128,127,128,126,128,126,128,128,0
3930,126,126,130,128,126,125,126,126,0
3934,127,126,129,128,123,126,122,126,0
3936,130,127,126,131,125,126,129,127,0
3940,126,127,128,128,127,128,128,128,0
3949,126,127,128,127,127,126,128,127,0
3954,128,128,128,127,127,128,129,127,0
3958,127,128,127,128,127,128,127,128,0
3961,127,127,128,128,126,127,129,127,0
3965,127,127,127,127,127,126,127,127,0
3969,127,127,128,127,126,127,128,128,0
3972,128,127,127,128,126,127,127,127,0
3976,128,128,126,128,126,127,128,128,0
3980,126,128,127,128,126,126,127,127,0
3983,126,127,128,128,127,127,128,128,0
3986,126,127,127,127,126,128,127,128,0
3990,127,129,126,127,127,128,127,128,0
3993,128,127,127,126,128,128,123,125,0
3996,130,127,127,129,128,128,123,126,0
4003,130,127,126,125,130,129,129,128,0
4006,127,128,128,126,130,129,129,128,0
4010,127,128,126,126,129,127,128,128,0
4013,127,128,127,128,129,127,129,128,0
4023,128,128,127,127,128,128,129,128,0
4027,127,128,127,127,129,128,129,127,0
4031,127,127,128,126,127,127,129,126,0
4038,127,127,129,127,127,127,129,127,0
4042,126,127,127,127,128,129,129,127,0
4046,127,128,127,128,127,128,128,127,0
4050,127,129,128,127,123,126,129,127,0
4053,130,126,128,130,129,129,124,126,0
4056,131,126,126,130,126,126,129,129,0
4059,128,129,128,128,128,128,129,128,0
4063,128,127,127,128,127,127,129,127,0
4066,127,128,129,127,128,127,128,128,0
4072,126,127,128,127,129,128,129,128,0
4075,127,128,129,129,129,128,130,128,0
4079,127,128,127,127,127,127,129,128,0
4082,128,124,128,130,128,128,124,126,0
4085,130,127,128,129,127,124,126,128,0
4089,127,127,128,128,128,127,130,128,0
4092,129,128,127,126,128,127,128,128,0
4098,127,127,129,126,128,126,129,127,0
4102,127,127,126,126,128,128,128,128,0
4105,127,128,126,127,128,127,129,127,0
4109,127,128,127,126,128,126,130,128,0
4112,128,127,127,126,127,125,129,127,0
4115,126,127,125,126,127,127,129,127,0
4119,128,128,126,127,127,127,130,127,0
4126,128,128,128,127,126,126,127,128,0
4129,126,128,125,126,127,127,122,125,0
4133,129,126,126,129,128,128,123,126,0
4136,129,127,127,126,128,129,127,128,0
4142,127,129,126,126,127,128,128,129,0
4146,127,128,127,126,126,126,129,127,0
4150,127,128,128,127,127,127,129,128,0
4153,126,128,126,127,127,127,128,128,0
4156,129,128,127,128,126,126,128,127,0
4160,128,128,128,127,125,128,124,126,0
4163,129,128,125,130,129,128,123,125,0
4166,127,128,125,126,128,129,128,128,0
4170,126,128,127,126,127,128,128,128,0
4172,128,128,127,126,129,126,126,127,0
4175,127,128,126,127,127,126,127,128,0
4178,128,128,126,128,128,128,127,128,0
4181,127,128,126,127,128,128,128,128,0
4184,128,128,128,126,127,126,128,128,0
4187,127,126,127,129,128,128,124,127,0
4192,130,127,126,130,128,125,127,127,0
4210,128,129,127,126,128,127,129,128,0
4216,127,128,128,126,128,126,129,128,0
4220,127,128,125,125,128,126,129,128,0
4224,127,128,128,126,128,129,127,128,0
4228,127,129,126,128,127,128,129,128,0
4231,127,128,127,128,124,125,129,128,0
4234,126,128,127,128,129,129,128,128,0
4237,126,127,126,128,127,130,127,128,0
4248,128,129,126,128,125,129,128,128,0
4253,128,127,126,131,128,129,124,126,0
4261,129,127,126,130,130,130,124,126,0
4266,131,127,128,129,129,129,130,129,0
4270,128,128,126,126,130,129,130,128,0
4273,127,128,129,126,130,128,129,127,0
4277,127,125,130,125,129,128,129,128,0
4280,127,128,127,127,129,129,128,127,0
4283,128,128,131,127,129,129,129,127,0
4286,127,128,132,128,126,125,124,126,0
4290,128,126,132,129,126,128,124,127,0
4294,128,127,133,129,124,129,128,128,0
4297,127,128,131,127,130,129,129,128,0
4300,128,128,132,127,129,128,129,128,0
4303,129,125,131,127,128,127,129,128,0
4305,126,128,128,127,127,129,127,128,0
4308,127,128,127,129,128,128,128,128,0
4311,127,128,127,128,125,124,127,127,0
4315,127,126,127,130,126,127,125,127,0
4318,128,127,126,129,126,125,128,129,0
4321,128,128,127,125,128,129,129,128,0
4326,127,128,128,126,129,128,128,128,0
4330,129,126,130,126,127,127,128,127,0
4332,126,127,130,127,129,129,128,128,0
4337,128,128,130,128,128,128,129,128,0
4341,127,127,130,127,129,127,128,129,0
4343,126,126,130,126,127,126,129,128,0
4348,127,128,130,127,127,126,127,128,0
4350,127,128,128,128,127,128,127,128,0
4354,126,128,128,127,127,124,124,126,0
4359,129,127,127,129,128,128,123,125,0
4364,130,126,129,129,125,126,127,128,0
4369,130,128,126,125,128,129,130,128,0
4373,126,127,127,126,127,127,129,128,0
4379,126,128,129,126,128,127,128,128,0
4382,128,127,128,125,127,127,127,127,0
4385,127,127,127,128,127,129,128,127,0
4388,128,128,127,128,127,127,128,128,0
4390,127,127,128,128,127,126,129,127,0
4394,127,127,129,128,125,126,126,127,0
4398,128,127,128,130,127,127,129,128,0
4401,128,127,126,128,127,126,128,127,0
4415,127,126,128,127,125,125,124,126,0
4418,130,127,128,131,128,126,125,127,0
4421,127,128,128,128,128,126,129,128,0
4425,126,128,125,127,128,127,130,128,0
4428,127,128,127,126,125,126,129,128,0
4431,126,128,131,127,128,127,129,128,0
4435,128,128,127,127,127,127,128,127,0
4438,127,128,126,126,127,126,127,128,0
4442,127,127,126,126,125,123,127,127,0
4445,127,127,126,126,127,126,127,127,0
4449,127,128,126,128,128,128,127,128,0
4455,128,129,126,127,128,128,127,127,0
4459,126,127,127,126,125,125,125,125,0
4462,130,128,127,129,129,128,124,126,0
4465,131,128,128,130,125,129,130,128,0
4468,127,128,127,127,128,128,130,128,0
4471,127,128,130,127,129,128,130,128,0
4474,126,127,128,125,129,128,130,128,0
4477,127,128,128,127,128,129,129,128,0
4491,128,128,129,127,128,128,128,129,0
4496,126,128,129,127,126,126,129,128,0
4499,127,128,130,127,128,127,129,127,0
4504,127,127,129,127,128,127,129,128,0
4507,127,127,129,127,127,128,128,128,0
4511,127,128,129,127,127,126,125,126,0
4514,129,127,127,130,128,128,124,126,0
4518,129,127,128,129,126,125,130,128,0
4526,128,128,128,125,127,127,129,128,0
4530,127,128,129,126,128,126,128,128,0
4534,127,127,130,126,130,127,129,128,0
4537,128,128,129,127,129,127,128,128,0
4540,128,128,128,125,129,128,128,129,0
4544,127,129,128,128,126,125,127,128,0
4548,127,127,130,131,128,128,123,126,0
4550,131,128,128,131,127,124,129,129,0
4553,126,128,127,127,129,128,128,129,0
4556,126,129,127,129,129,127,129,128,0
4564,129,128,129,126,128,127,128,129,0
4568,126,128,128,128,127,128,127,129,0
4571,127,128,127,128,127,129,126,128,0
4574,127,128,127,129,128,128,127,127,0
4578,125,127,126,127,126,128,122,126,0
4581,131,127,126,130,128,129,123,126,0
4584,127,129,126,126,129,129,128,128,0
4588,127,128,126,125,127,128,128,128,0
4591,126,128,126,126,127,127,128,128,0
4600,129,127,128,127,126,127,126,128,0
4603,127,128,125,127,129,130,126,128,0
4606,128,129,126,127,126,127,127,128,0
4611,126,128,126,127,124,129,127,128,0
4615,127,127,124,127,129,128,127,127,0
4620,128,129,126,128,127,127,129,127,0
4625,128,128,125,127,125,125,127,127,0
4629,127,127,126,127,125,127,123,126,0
4635,129,127,125,129,128,128,124,126,0
4639,129,128,124,127,128,129,129,128,0
4643,127,128,122,126,129,129,129,128,0
4646,126,128,125,125,130,129,129,128,0
4650,127,127,125,127,129,130,127,128,0
4654,128,128,127,128,129,130,127,128,0
4657,127,128,126,128,127,129,125,129,0
4661,127,128,127,126,124,128,126,128,0
4664,129,126,128,132,129,130,121,126,0
4668,130,127,126,127,130,129,127,128,0
4675,126,129,130,127,129,129,127,127,0
4679,127,125,127,125,129,127,127,128,0
4683,126,128,131,126,130,129,128,128,0
4686,127,128,130,129,128,129,126,128,0
4689,127,128,130,129,129,128,128,128,0
4692,128,127,131,126,129,125,128,128,0
4695,127,127,133,131,128,128,121,125,0
4698,129,127,128,130,124,129,129,128,0
4701,127,129,129,126,129,128,128,127,0
4704,127,128,131,125,128,127,129,128,0
4707,127,125,130,125,128,128,129,128,0
4759,127,128,128,128,128,129,128,128,0
4772,127,128,128,128,127,129,128,128,0
4781,127,127,129,128,123,126,128,127,0
4788,127,127,127,128,126,128,128,127,0
4794,129,128,128,127,128,129,128,126,0
4823,128,128,127,128,126,128,129,127,0
4831,128,126,128,127,126,128,125,126,0
4838,130,126,127,130,131,128,124,125,0
4845,129,127,127,125,129,128,130,128,0
4850,127,128,126,126,129,128,129,128,0
4891,127,128,127,126,129,127,129,128,0
4901,127,127,128,127,129,127,129,127,0
4908,127,128,126,128,128,127,128,127,0
4960,128,128,127,130,126,128,129,128,0
4973,127,128,127,129,126,127,129,128,0
4991,127,126,130,133,128,127,124,126,0
5003,130,127,127,131,127,125,130,128,0
5011,127,129,128,126,128,129,129,128,0
5026,127,129,130,128,128,127,130,128,0
5032,126,128,130,127,127,124,128,127,0
5037,127,128,127,127,127,127,129,128,0
5043,127,128,128,129,126,127,129,127,0
5048,126,128,126,129,126,125,129,128,0
5051,126,127,129,128,128,124,129,128,0
5055,126,128,127,129,128,127,128,128,0
5058,127,128,128,129,126,127,128,128,0
5062,128,128,125,128,125,125,129,127,0
5065,129,127,125,131,128,129,125,125,0
5068,130,127,126,131,128,130,129,128,0
5072,126,128,127,127,129,128,130,127,0
5075,127,128,127,128,127,127,129,128,0
5079,126,127,127,127,129,127,128,128,0
5082,127,128,127,128,128,128,128,127,0
5085,127,127,128,128,128,127,128,128,0
5089,128,128,128,127,128,127,129,128,0
5094,126,127,128,128,129,127,128,128,0
5099,129,126,127,130,127,127,124,126,0
5105,129,127,129,128,128,127,129,129,0
5108,127,128,128,127,129,128,128,128,0
5111,127,127,129,127,125,127,128,127,0
5115,127,128,128,128,129,127,130,128,0
5118,129,129,127,128,128,129,128,127,0
5122,128,128,128,128,127,129,128,127,0
5125,127,126,128,130,127,129,123,126,0
5128,131,127,128,129,128,129,125,127,0
5132,127,126,128,127,127,128,128,128,0
5135,127,128,124,126,128,129,129,128,0
5139,126,128,125,125,129,127,130,128,0
5142,126,128,126,126,127,127,128,128,0
5145,128,128,126,128,126,129,129,128,0
5161,127,128,126,128,128,128,129,127,0
5166,126,128,125,127,127,128,130,128,0
5169,127,126,126,128,127,127,130,129,0
5173,126,128,126,128,128,129,129,128,0
5178,128,128,127,128,125,127,128,128,0
5182,126,127,127,131,128,129,123,126,0
5186,128,126,127,131,128,129,125,126,0
5190,130,127,127,126,129,129,129,128,0
5193,127,128,127,126,128,128,129,128,0
5196,127,128,129,125,126,127,129,128,0
5200,127,127,129,126,127,127,128,129,0
5203,127,128,127,127,128,127,128,127,0
5206,127,129,127,127,128,127,128,127,0
5210,127,128,128,126,124,126,128,126,0
5213,127,128,128,127,126,124,127,126,0
5218,127,128,128,127,127,127,128,127,0
5229,129,128,128,128,126,126,127,127,0
5232,128,126,128,128,120,124,123,125,0
5236,131,127,127,131,128,128,124,125,0
5239,129,126,127,129,123,129,128,127,0
5242,127,128,126,126,127,128,128,127,0
5246,127,128,127,127,128,127,130,127,0
5298,127,127,128,127,127,127,129,127,0
5309,128,128,127,127,127,128,128,127,0
5325,128,128,127,127,127,127,128,127,0
5331,127,128,126,126,129,129,126,125,0
5338,129,126,127,129,126,127,125,126,0
5345,129,127,126,129,126,126,127,128,0
5351,128,129,127,127,131,129,128,127,0
5356,126,129,126,127,130,128,129,128,0
5361,125,127,126,126,129,126,129,128,0
5366,127,128,127,129,130,128,128,127,0
5370,127,128,126,129,129,128,130,128,0
5373,128,128,128,128,128,128,130,127,0
5376,126,127,128,130,128,129,125,126,0
5380,129,126,127,131,128,129,125,125,0
5383,128,128,125,128,126,129,130,127,0
5386,127,128,127,127,127,128,130,128,0
5390,127,127,125,125,129,127,130,126,0
5393,127,127,125,128,129,129,129,128,0
5397,127,128,126,129,127,129,128,128,0
5400,127,128,129,127,127,128,127,128,0
5403,127,128,126,128,126,124,123,126,0
5407,128,126,129,129,127,127,123,125,0
5413,127,128,127,127,130,129,127,127,0
5419,126,129,127,127,128,127,126,128,0
5421,125,126,131,129,129,127,127,129,0
5424,125,128,131,128,130,128,126,128,0
5427,126,129,122,130,130,128,125,128,0
5431,128,129,123,124,129,128,126,128,0
5433,127,128,128,129,128,128,122,126,0
5436,130,126,127,128,128,128,122,126,0
5440,129,127,127,123,129,129,128,128,0
5443,127,128,129,126,128,129,128,127,0
5445,127,127,127,127,130,127,127,128,0
5448,127,125,128,127,128,129,127,127,0
5451,127,128,127,128,126,130,127,127,0
5455,129,128,128,129,127,129,127,128,0
5459,126,127,129,127,122,128,129,128,0
5462,126,126,129,133,127,128,123,126,0
5466,131,126,126,129,126,128,128,126,0
5468,128,128,126,128,126,130,128,127,0
5472,126,128,127,126,127,128,127,126,0
5475,125,127,129,127,128,127,128,128,0
5478,127,128,130,131,127,129,128,127,0
5481,127,129,128,126,129,129,129,128,0
5486,126,128,129,127,121,127,122,126,0
5497,130,127,128,131,127,129,124,126,0
5501,130,127,129,127,126,129,127,128,0
5504,127,128,128,128,126,129,127,128,0
5507,127,128,128,128,127,128,128,128,0
5511,126,128,127,123,129,128,128,128,0
5567,127,128,128,125,128,129,127,128,0
5581,129,129,128,128,128,129,127,128,0
5589,128,128,127,127,124,127,128,129,0
5595,128,126,127,130,126,129,123,126,0
5601,133,127,126,130,127,126,130,128,0
5606,127,128,126,128,129,130,130,128,0
5610,128,127,127,127,129,129,130,128,0
5614,125,128,128,126,129,125,129,128,0
5620,128,127,128,128,129,128,128,128,0
5625,128,128,127,127,127,127,127,128,0
5628,128,128,128,129,127,124,128,129,0
5632,125,127,128,132,128,128,123,127,0
5635,130,127,129,132,130,129,126,128,0
5639,127,128,131,128,128,130,130,130,0
5642,125,126,132,126,126,125,129,128,0
5645,127,126,129,125,128,126,126,128,0
5649,129,128,126,128,128,127,128,128,0
5652,128,130,128,126,130,127,130,129,0
5656,127,129,127,126,128,126,130,129,0
5660,126,131,127,124,128,125,129,128,0
5663,125,133,129,126,128,126,128,129,0
5666,127,131,126,127,128,127,128,128,0
5671,128,130,127,127,127,126,128,129,0
5674,125,128,127,127,124,125,129,127,0
5677,129,127,127,129,126,127,125,127,0
5681,129,127,127,128,124,125,128,128,0
5684,128,129,126,127,127,127,129,129,0
5688,125,127,127,126,128,123,128,128,0
5691,127,127,127,127,127,126,129,128,0
5695,129,128,127,128,127,127,128,128,0
5700,128,128,126,129,128,127,128,127,0
5705,126,125,128,131,128,128,122,126,0
5709,131,126,127,130,126,125,129,128,0
5712,127,127,127,128,129,128,128,128,0
5715,127,127,128,125,125,127,128,129,0
5718,126,127,128,124,126,127,129,128,0
5721,126,127,127,125,126,128,128,128,0
5725,128,128,126,127,127,127,128,127,0
5731,127,127,126,127,128,127,127,128,0
5734,128,127,127,127,127,126,128,127,0
5739,126,127,126,129,125,127,127,128,0
5743,129,127,127,129,127,127,127,128,0
5745,129,128,128,128,125,125,126,127,0
5748,131,127,126,130,127,127,123,126,0
5751,131,127,127,131,128,129,124,127,0
5757,127,128,128,128,129,128,131,128,0
5762,127,129,127,129,130,128,130,127,0
5765,125,128,129,129,129,127,131,127,0
5768,126,128,129,133,130,126,130,127,0
5772,127,128,129,131,127,128,130,127,0
5775,128,128,127,131,128,129,131,128,0
5778,126,128,130,129,127,127,129,128,0
5781,126,127,129,130,127,129,127,128,0
5785,128,128,129,130,129,130,128,128,0
5788,129,128,128,130,130,130,128,129,0
5792,127,128,129,129,127,126,128,128,0
5795,125,126,131,132,130,129,123,126,0
5798,131,127,129,133,128,127,128,128,0
5804,128,128,129,131,127,129,128,128,0
5811,126,127,129,130,123,129,130,127,0
5808,126,130,131,130,128,128,129,127,0
5814,128,127,130,129,127,130,129,126,0
5820,128,128,128,130,127,129,130,128,0
5823,127,127,130,130,128,127,130,128,0
5826,125,126,129,130,128,128,124,127,0
5829,131,127,128,128,126,126,129,129,0
5832,126,128,127,127,127,128,130,129,0
5835,127,128,126,127,128,128,130,129,0
5839,128,129,126,128,128,125,129,128,0
5843,128,128,127,128,129,128,130,129,0
5847,127,128,126,125,130,128,129,129,0
5851,126,128,127,127,126,126,124,128,0
5854,129,126,126,125,127,127,124,129,0
5856,129,127,126,126,126,128,130,129,0
5859,127,128,126,128,129,129,131,129,0
5862,125,127,125,128,128,127,129,128,0
5865,125,127,127,127,128,128,129,129,0
5868,127,126,126,124,126,128,127,129,0
5871,128,128,126,123,127,128,127,129,0
5874,127,127,128,126,128,125,128,128,0
5877,125,126,126,123,128,126,125,126,0
5880,132,126,127,126,128,128,122,126,0
5882,132,126,129,124,129,129,130,128,0
5885,128,128,128,124,131,127,130,128,0
5888,129,126,126,124,127,126,127,127,0
5891,127,127,126,127,129,129,129,127,0
5895,128,128,128,127,128,129,128,127,0
5900,128,128,127,127,129,128,130,127,0
5905,127,124,128,127,129,129,125,125,0
5909,130,127,128,128,129,129,125,126,0
5913,128,127,130,127,130,130,129,127,0
5916,126,129,127,124,128,129,127,128,0
5922,128,127,129,122,127,127,127,129,0
5925,125,126,129,126,129,126,127,128,0
5928,128,128,129,123,127,128,127,129,0
5932,127,128,130,126,127,127,129,129,0
5935,129,127,130,128,128,128,123,126,0
5938,131,127,130,128,128,129,125,129,0
5941,126,126,129,126,133,128,130,129,0
5944,126,128,131,125,131,127,130,128,0
5947,124,127,130,128,129,126,131,128,0
5951,128,129,126,120,126,126,129,128,0
5954,127,128,131,127,130,127,128,128,0
5960,129,129,131,130,129,128,127,128,0
5964,130,127,125,124,123,127,122,126,0
5968,131,126,127,128,129,129,123,126,0
5971,127,126,128,137,127,132,130,129,0
5975,127,128,126,129,128,128,128,129,0
5980,128,128,130,126,126,126,129,128,0
5984,128,128,125,129,131,128,129,128,0
5987,129,129,127,129,130,127,128,127,0
5991,128,128,130,129,127,128,128,128,0
5995,125,126,128,126,128,129,129,126,0
5998,124,127,125,125,127,127,129,127,0
6002,127,128,127,126,125,128,128,127,0
6006,129,128,128,129,125,129,128,128,0
6011,127,127,131,129,124,126,128,126,0
6016,130,126,124,131,127,128,124,126,0
6020,131,127,127,129,124,126,130,126,0
6023,129,128,127,128,127,127,130,128,0
6026,127,127,128,128,132,122,131,128,0
6029,127,125,130,126,128,126,129,129,0
6032,127,127,127,129,128,127,129,127,0
6035,127,128,126,128,125,129,128,128,0
6038,128,127,129,127,125,125,127,127,0
6041,127,126,127,127,125,127,130,127,0
6043,128,127,128,127,128,128,127,127,0
6047,129,128,127,127,128,129,127,127,0
6050,127,127,129,128,127,128,122,125,0
6053,130,126,126,128,129,129,124,125,0
6056,130,126,126,128,123,128,130,128,0
6060,129,126,128,128,130,128,131,128,0
6063,128,126,128,125,123,125,128,128,0
6066,127,125,128,124,130,127,129,128,0
6070,127,127,126,127,131,128,128,129,0
6073,128,128,127,127,127,127,128,128,0
6077,128,126,128,128,126,127,128,127,0
6081,127,126,131,128,126,125,128,127,0
6084,125,127,129,128,128,129,127,128,0
6088,128,128,127,129,129,129,127,127,0
6091,128,128,129,128,126,127,126,127,0
6093,128,127,129,127,126,127,123,125,0
6096,131,126,127,130,126,128,124,126,0
6101,129,127,128,126,127,127,128,126,0
6104,130,129,129,126,126,127,128,128,0
6111,127,126,126,125,124,128,129,128,0
6116,127,127,128,127,124,128,127,127,0
6119,128,128,126,127,127,128,127,128,0
6122,129,128,130,127,128,127,126,128,0
6125,127,128,129,128,126,129,121,126,0
6129,130,127,126,130,128,130,123,128,0
6133,128,129,128,124,130,128,129,129,0
6136,127,128,128,127,131,128,128,129,0
6139,126,128,126,126,128,126,127,126,0
6143,125,128,130,125,129,126,125,128,0
6146,128,128,127,127,128,127,127,129,0
6150,127,128,126,127,129,127,127,129,0
6153,126,127,129,127,126,125,127,126,0
6156,128,127,127,129,127,125,124,127,0
6159,128,127,127,126,128,129,128,128,0
6163,127,128,127,124,131,128,128,128,0
6165,127,127,128,125,126,128,128,128,0
6169,126,128,128,125,126,128,127,127,0
6172,129,128,128,127,127,128,127,127,0
6175,128,127,128,129,127,128,126,127,0
6179,129,127,127,128,130,128,123,125,0
6182,131,127,127,130,129,129,123,127,0
6185,130,128,128,124,131,129,128,128,0
6188,127,128,127,125,127,128,128,128,0
6191,126,128,126,124,129,128,128,129,0
6193,127,127,129,125,129,128,129,129,0
6197,128,129,127,128,127,128,129,129,0
6200,129,128,128,127,128,127,129,129,0
6204,128,127,128,127,131,123,128,129,0
6209,127,128,130,128,127,126,127,129,0
6213,128,128,130,129,127,128,129,129,0
6216,128,128,127,129,127,128,129,130,0
6219,128,128,127,129,125,128,124,128,0
6226,129,126,127,130,126,129,124,129,0
6230,130,127,125,127,127,130,129,133,0
6234,127,128,127,128,129,129,129,133,0
6239,127,128,128,128,126,128,128,133,0
6242,129,126,130,128,126,128,128,132,0
6245,127,128,126,127,127,129,127,129,0
6249,128,129,125,129,126,129,128,129,0
6252,127,128,126,128,126,126,128,128,0
6255,127,128,128,128,127,128,128,129,0
6259,125,127,125,129,127,129,127,127,0
6262,128,128,127,129,128,129,128,127,0
6265,127,128,128,130,126,127,122,125,0
6269,130,128,124,130,129,129,123,125,0
6272,127,128,128,131,126,128,128,127,0
6275,127,130,126,127,129,128,129,127,0
6279,126,129,127,128,129,127,129,126,0
6282,126,129,127,127,129,129,130,126,0
6284,125,128,127,127,129,129,128,126,0
6290,127,129,127,127,128,130,127,127,0
6293,127,129,128,130,126,125,126,127,0
6298,127,128,129,126,126,126,126,127,0
6302,127,128,128,127,125,131,126,127,0
6306,128,128,127,128,128,131,127,127,0
6310,127,127,127,129,124,130,122,125,0
6314,130,126,126,131,128,129,123,126,0
6319,131,127,128,130,125,126,129,128,0
6324,127,128,127,127,130,130,128,128,0
6329,127,129,128,128,130,130,131,128,0
6333,129,128,128,124,130,130,131,130,0
6335,127,129,126,125,128,129,129,127,0
6338,127,129,130,127,129,128,130,127,0
6341,126,128,130,127,127,127,131,128,0
6344,129,129,129,128,126,126,129,127,0
6346,127,129,132,129,125,128,129,127,0
6350,126,128,129,128,126,128,128,126,0
6353,126,128,129,127,127,126,128,127,0
6356,125,127,131,127,124,128,123,125,0
6360,129,127,126,129,129,130,123,125,0
6363,127,127,129,125,128,128,128,127,0
6366,128,128,129,125,128,128,130,127,0
6372,125,128,129,126,127,126,128,128,0
6376,125,126,127,126,126,127,128,127,0
6378,127,129,128,125,129,129,128,127,0
6382,125,128,129,127,126,127,127,128,0
6386,124,127,128,130,128,129,122,125,0
6389,128,127,128,130,129,127,124,126,0
6392,122,128,127,127,129,132,128,127,0
6396,126,128,129,127,130,128,129,125,0
6400,126,126,131,126,127,127,128,126,0
6403,126,127,129,127,130,128,128,127,0
6406,128,128,126,127,127,128,127,128,0
6410,129,129,128,126,126,127,127,127,0
6412,127,128,126,123,127,125,126,128,0
6417,127,128,129,122,125,125,127,127,0
6420,128,128,127,122,128,126,127,127,0
6424,128,128,124,121,127,126,128,127,0
6430,127,127,127,122,128,126,125,125,0
6434,132,127,126,126,128,128,124,125,0
6438,133,127,126,125,125,125,130,127,0
6441,129,128,128,122,126,125,129,128,0
6444,127,128,128,121,126,126,130,127,0
6450,130,128,130,122,127,127,130,128,0
6453,130,127,126,125,128,129,128,129,0
6456,128,128,128,124,127,127,127,128,0
6460,128,127,129,125,124,124,127,128,0
6463,128,127,129,124,125,125,126,128,0
6466,129,127,128,127,128,128,127,127,0
6471,129,127,126,127,127,129,128,128,0
6474,128,128,126,126,126,126,122,127,0
6477,130,127,125,129,128,130,122,127,0
6482,130,127,126,131,128,126,129,129,0
6485,126,128,125,128,129,129,129,129,0
6489,127,128,126,128,130,132,131,129,0
6492,127,125,126,128,128,129,128,128,0
6494,129,128,128,127,128,127,129,128,0
6497,127,128,128,126,128,127,129,129,0
6501,127,128,128,126,128,127,129,129,0
6504,129,126,127,126,125,124,128,128,0
6507,126,126,128,126,130,129,127,127,0
6510,128,128,127,127,130,130,128,128,0
6513,127,128,129,127,129,129,129,127,0
6516,127,127,131,127,124,128,128,126,0
6519,131,126,129,130,127,131,123,125,0
6522,129,127,129,126,129,131,129,127,0
6528,126,129,130,126,130,128,128,128,0
6531,128,125,129,127,128,125,129,128,0
6537,128,128,127,128,129,128,127,128,0
6541,127,128,128,127,127,129,128,128,0
6546,128,127,128,128,127,127,127,128,0
6550,130,126,128,130,128,130,123,126,0
6553,130,127,127,130,128,127,126,128,0
6555,131,129,129,130,129,129,129,128,0
6558,127,127,127,130,128,130,129,128,0
6561,128,126,128,128,130,129,130,128,0
6564,129,126,129,127,128,127,129,128,0
6567,127,127,129,128,129,128,128,128,0
6570,127,128,127,127,128,127,129,127,0
6574,126,127,127,128,127,126,129,127,0
6577,127,127,126,128,124,126,128,128,0
6580,127,128,126,130,127,127,128,128,0
6583,126,129,127,130,128,126,128,128,0
6586,125,125,126,134,128,126,122,125,0
6589,130,127,126,134,129,128,124,127,0
6594,126,129,128,130,129,129,130,128,0
6597,126,128,126,129,128,128,129,126,0
6600,129,128,129,128,127,126,128,127,0
6604,128,127,127,130,129,127,128,127,0
6607,127,129,125,128,128,128,128,127,0
6610,127,129,124,127,128,128,129,127,0
6613,127,128,126,127,124,127,130,127,0
6618,130,128,126,127,123,127,129,127,0
6624,127,128,122,129,126,128,128,128,0
6621,128,128,123,128,128,129,129,128,0
6627,127,128,124,129,125,126,127,129,0
6631,129,126,123,132,128,129,122,127,0
6635,131,127,124,132,125,125,128,128,0
6639,129,128,124,126,129,128,128,128,0
6643,127,128,126,129,130,127,129,128,0
6649,126,127,125,129,130,128,129,127,0
6652,126,126,123,127,129,128,128,127,0
6656,127,127,126,126,128,128,128,127,0
6659,125,127,127,126,127,127,127,127,0
6662,126,127,130,130,128,127,128,128,0
6665,126,128,124,128,127,127,128,126,0
6668,128,128,127,129,127,128,129,128,0
6671,127,127,126,128,127,123,125,125,0
6673,131,126,129,131,128,127,123,125,0
6676,130,126,129,131,121,128,129,127,0
6681,127,127,127,126,128,127,129,127,0
6684,127,128,128,126,128,128,129,127,0
6687,126,125,130,126,128,128,127,128,0
6691,127,127,129,127,127,128,127,127,0
6694,128,127,130,128,127,128,128,128,0
6697,127,127,129,128,126,128,129,128,0
6701,127,127,130,129,126,127,129,128,0
6705,127,126,131,132,127,128,125,126,0
6708,128,128,130,128,129,130,129,128,0
6711,127,129,130,128,128,128,127,127,0
6714,127,127,131,126,130,127,128,128,0
6717,126,127,129,130,127,127,126,128,0
6721,128,128,130,129,128,128,127,128,0
6724,127,129,130,128,127,125,125,126,0
6728,130,127,130,131,130,129,123,126,0
6731,130,126,129,131,127,129,131,128,0
6734,127,128,129,129,130,129,129,128,0
6737,126,128,129,126,129,128,128,128,0
6741,126,127,128,125,128,128,128,128,0
6745,127,127,129,127,128,127,128,127,0
6750,128,128,127,127,127,129,129,128,0
6753,127,128,127,127,128,128,128,129,0
6756,125,127,127,130,123,126,128,128,0
6760,127,126,129,131,127,127,124,127,0
6763,129,127,126,125,129,128,128,130,0
6766,126,128,127,125,129,127,129,128,0
6770,127,128,126,125,128,127,126,128,0
6773,126,127,127,128,124,128,128,127,0
6777,128,129,127,127,128,128,128,127,0
6780,127,129,127,126,126,127,127,128,0
6787,128,127,126,132,127,127,123,126,0
6790,130,127,128,130,124,125,128,127,0
6795,128,129,129,129,127,128,129,128,0
6799,128,129,127,126,127,128,129,128,0
6802,127,128,129,126,127,126,129,128,0
6805,129,128,131,127,129,125,130,127,0
6808,127,128,128,127,126,127,128,128,0
6811,127,129,128,128,127,126,128,128,0
6815,126,128,129,127,127,124,125,127,0
6818,130,126,127,131,128,128,123,127,0
6821,128,125,131,127,128,127,129,129,0
6823,126,128,127,127,127,127,129,129,0
6829,127,128,128,124,125,125,128,128,0
6836,127,127,130,123,128,128,129,129,0
6840,128,128,128,124,127,128,128,128,0
6844,128,128,127,124,127,128,127,129,0
6847,127,126,127,121,127,124,126,127,0
6851,128,127,129,121,128,127,128,128,0
6855,128,127,127,122,128,127,126,128,0
6861,128,127,126,122,128,126,127,128,0
6865,127,127,127,127,129,127,124,126,0
6869,128,127,127,129,129,128,125,125,0
6872,129,127,127,126,127,129,130,128,0
6875,128,128,128,127,127,129,130,127,0
6879,127,128,129,126,128,129,129,128,0
6882,126,127,128,126,126,129,130,127,0
6886,127,128,127,127,127,129,129,128,0
6889,127,128,128,128,127,128,129,128,0
6893,127,128,127,127,127,127,130,127,0
6896,127,128,129,130,128,128,126,126,0
6900,129,127,125,132,126,127,126,128,0
6904,127,129,128,129,130,128,129,127,0
6907,127,129,128,130,129,126,129,127,0
6910,127,128,129,129,127,125,129,127,0
6913,127,128,127,130,129,128,129,127,0
6916,128,128,127,130,127,128,127,127,0
6920,127,128,127,128,127,125,128,128,0
6923,127,126,127,133,129,128,124,126,0
6926,129,128,126,133,125,125,129,129,0
6929,129,128,126,128,128,128,128,128,0
6933,128,128,126,129,129,126,128,128,0
6936,128,128,127,127,127,127,128,127,0
6941,127,127,126,128,129,129,128,127,0
6944,127,129,126,127,127,129,129,128,0
6948,127,129,125,126,126,128,128,127,0
6951,126,127,127,128,123,129,123,126,0
6954,129,127,126,133,127,130,125,127,0
6957,129,125,129,130,129,129,130,129,0
6960,126,129,126,130,129,128,129,129,0
6965,127,127,126,129,127,126,129,129,0
6971,127,128,128,128,128,128,128,128,0
6974,126,128,128,127,129,127,128,129,0
6978,126,127,131,129,128,128,128,128,0
6981,126,127,131,127,125,126,129,125,0
6984,127,127,129,133,129,128,122,126,0
6987,128,126,129,127,130,128,128,127,0
6990,126,126,131,128,125,125,130,128,0
6994,125,126,130,129,127,125,128,127,0
6997,127,128,129,130,126,127,128,128,0
7002,127,129,126,128,128,128,128,128,0
7005,126,128,126,129,128,128,128,128,0
7008,127,127,129,128,126,127,128,126,0
7013,128,126,128,131,129,129,123,126,0
7017,130,125,126,124,129,128,130,127,0
7020,126,128,126,124,128,128,129,127,0
7024,127,126,129,126,128,127,129,128,0
7027,128,128,129,126,127,128,127,128,0
7030,129,129,127,127,129,129,127,127,0
7034,128,129,129,125,127,129,128,128,0
7038,126,127,127,125,128,128,127,127,0
7041,127,127,128,125,128,128,126,127,0
7046,128,128,127,127,130,129,127,128,0
7050,129,128,128,128,130,128,128,126,0
7054,130,128,126,130,129,128,124,126,0
7057,131,127,126,130,126,126,125,127,0
7062,128,128,127,127,132,127,129,128,0
7066,126,129,129,128,129,127,129,128,0
7070,126,130,126,127,130,128,128,127,0
7074,125,128,128,127,128,129,129,127,0
7078,128,128,125,127,128,129,128,128,0
7082,126,128,126,126,126,127,129,127,0
7088,127,128,125,128,128,126,128,128,0
7091,126,126,127,127,124,126,127,128,0
7094,129,127,125,127,127,128,126,129,0
7097,128,129,122,127,126,128,126,129,0
7100,127,126,135,131,127,127,122,126,0
7103,130,126,125,132,130,128,123,126,0
7109,127,127,126,128,129,128,128,127,0
7106,130,127,123,130,129,128,129,128,0
7113,127,127,127,128,128,127,128,128,0
7116,125,127,126,128,129,128,130,128,0
7119,127,128,129,129,126,127,127,128,0
7122,129,128,125,126,127,129,127,128,0
7133,128,127,127,127,123,126,126,128,0
7125,128,129,127,125,127,127,128,128,0
7138,128,127,127,127,127,129,126,129,0
7144,128,128,128,129,127,129,127,128,0
7147,128,128,128,129,122,126,121,126,0
7150,130,127,127,130,128,129,123,127,0
7155,130,127,127,129,123,129,126,128,0
7159,128,128,128,129,130,129,127,128,0
7163,127,128,128,126,126,128,126,128,0
7166,126,127,129,126,127,128,126,128,0
7169,128,128,128,125,127,128,127,128,0
7173,127,128,127,127,127,128,128,128,0
7176,128,128,127,128,128,127,128,129,0
7179,127,128,126,127,126,127,127,128,0
7183,127,127,128,129,127,127,128,128,0
7187,127,128,128,129,126,128,128,129,0
7190,128,129,127,128,126,125,123,127,0
7194,128,126,127,130,127,126,124,127,0
7199,129,127,129,129,129,127,123,126,0
7203,128,125,130,128,132,129,128,128,0
7205,128,128,128,124,130,128,128,127,0
7208,127,128,130,127,125,127,127,127,0
7211,127,128,128,127,126,127,128,129,0
7215,129,128,128,128,128,127,128,129,0
7217,128,129,126,127,127,123,129,128,0
7220,127,127,127,131,127,127,123,126,0
7223,129,126,126,131,128,129,125,127,0
7226,126,126,129,127,128,129,130,128,0
7231,127,128,127,127,127,127,131,127,0
7234,127,127,128,127,126,126,129,128,0
7238,126,127,128,125,129,127,129,128,0
7241,127,128,126,127,128,127,129,128,0
7244,127,128,126,126,128,127,129,128,0
7247,127,127,127,127,125,126,130,128,0
7250,126,127,126,129,126,128,129,128,0
7253,128,128,126,128,127,129,128,128,0
7256,128,128,126,129,128,127,130,128,0
7260,127,127,126,131,128,129,124,126,0
7263,130,128,127,132,129,129,124,125,0
7265,128,128,129,127,129,129,130,128,0
7268,128,129,127,128,127,128,131,127,0
7271,127,129,128,128,128,129,130,128,0
7274,126,128,127,128,129,127,129,128,0
7278,128,129,128,127,127,128,129,128,0
7282,128,129,128,127,129,129,130,128,0
7285,128,129,127,126,127,128,129,128,0
7288,128,126,127,130,128,128,123,126,0
7295,131,127,127,129,122,128,129,128,0
7299,128,129,127,127,128,129,129,128,0
7304,127,128,128,126,126,127,129,129,0
7307,127,128,129,126,127,127,129,128,0
7310,128,128,128,127,128,129,128,128,0
7313,127,128,127,125,125,129,127,128,0
7316,128,127,129,127,125,125,127,128,0
7319,128,127,128,127,125,126,129,128,0
7322,128,126,126,128,127,129,128,128,0
7325,127,128,127,127,129,128,128,127,0
7330,127,128,127,131,131,129,123,126,0
7333,130,126,128,131,130,129,123,126,0
7336,130,127,128,131,128,126,129,128,0
7339,129,129,127,129,133,131,132,129,0
7342,125,127,127,127,128,130,131,129,0
7345,127,126,127,128,129,126,129,128,0
7349,127,128,127,128,128,127,128,128,0
7352,127,128,127,128,128,129,130,127,0
7355,127,128,127,128,128,127,129,127,0
7358,127,127,127,128,127,124,129,127,0
7362,128,127,127,127,126,125,127,127,0
7365,128,128,128,126,126,127,128,127,0
7367,128,127,128,125,127,129,124,127,0
7370,130,126,128,128,129,128,124,126,0
7374,131,127,128,128,131,127,127,127,0
7377,128,129,129,127,137,128,129,129,0
7381,126,127,131,127,134,129,130,128,0
7384,124,128,130,127,134,127,129,128,0
7388,125,128,130,128,135,127,127,128,0
7390,128,128,127,128,135,128,128,128,0
7393,126,128,128,129,133,128,127,128,0
7398,126,127,127,128,130,127,128,127,0
7403,126,126,128,128,132,127,127,128,0
7406,128,127,128,130,129,128,127,128,0
7412,127,128,128,130,129,127,126,128,0
7415,126,127,128,129,124,128,122,126,0
7418,130,127,127,130,127,127,123,126,0
7422,127,128,128,126,128,127,128,128,0
7425,128,129,127,127,127,127,128,129,0
7428,127,128,128,125,125,126,129,127,0
7442,127,129,126,126,127,128,130,128,0
7446,128,128,128,126,122,129,127,128,0
7449,127,127,126,125,125,126,127,127,0
7452,127,127,128,125,126,127,129,126,0
7456,128,128,128,125,125,129,128,127,0
7459,128,128,126,127,128,130,129,128,0
7463,128,127,128,126,128,129,127,128,0
7466,128,126,128,126,131,128,123,126,0
7471,131,126,128,125,130,127,124,126,0
7473,127,128,128,122,130,128,129,128,0
7476,127,127,128,123,127,127,129,128,0
7479,127,127,131,124,127,124,128,128,0
7483,126,126,130,128,128,127,128,128,0
7486,127,128,127,129,127,129,129,127,0
7490,126,129,128,129,127,127,130,128,0
7493,127,128,126,129,124,124,130,127,0
7497,127,127,126,132,127,125,124,126,0
7500,129,127,128,130,127,127,130,127,0
7504,127,127,127,130,128,127,129,128,0
7508,127,128,126,129,128,127,130,128,0
7511,127,126,126,130,126,128,129,128,0
7514,127,127,128,130,125,129,128,128,0
7517,128,127,127,131,124,128,128,128,0
7524,128,127,128,131,123,125,127,127,0
7527,127,126,128,131,124,128,128,128,0
7530,128,127,128,130,122,127,128,129,0
7533,127,127,128,132,126,129,129,129,0
7536,127,127,128,130,123,126,127,127,0
7540,129,126,127,134,126,128,123,125,0
7544,130,128,128,132,125,127,126,128,0
7547,127,128,127,133,128,128,129,129,0
7550,128,128,128,132,128,127,129,128,0
7553,128,127,128,132,127,127,129,128,0
7556,127,127,127,131,128,128,129,128,0
7563,127,128,126,129,125,126,127,128,0
7559,128,129,127,130,127,128,129,128,0
7566,127,127,127,129,124,125,129,128,0
7569,127,127,127,131,128,129,124,126,0
7572,130,127,126,128,131,130,129,127,0
7575,127,128,127,128,131,127,129,128,0
7578,128,128,127,128,127,124,128,128,0
7581,130,128,127,127,127,129,128,128,0
7584,128,129,126,129,127,129,128,128,0
7587,126,129,127,128,127,128,129,127,0
7591,127,127,127,127,128,128,125,125,0
7594,130,128,126,128,127,129,124,126,0
7597,127,129,128,126,127,128,128,129,0
7600,127,129,128,125,128,127,129,127,0
7603,127,128,129,123,127,127,128,128,0
7606,129,128,128,126,127,128,128,128,0
7610,128,128,127,127,127,130,128,128,0
7613,127,128,128,127,126,128,127,128,0
7616,127,127,127,126,123,126,122,126,0
7620,129,127,126,127,126,127,124,127,0
7627,129,128,129,126,127,130,130,128,0
7630,126,128,127,126,127,129,129,128,0
7633,127,128,127,126,127,127,129,128,0
7636,126,127,127,126,128,128,129,129,0
7639,127,128,127,127,128,128,128,128,0
7642,127,128,126,124,126,129,128,127,0
7645,127,127,129,127,127,128,129,128,0
7648,127,127,127,128,129,130,124,126,0
7651,130,127,127,124,129,129,130,128,0
7654,129,129,127,124,130,128,130,128,0
7657,128,128,127,125,128,128,131,128,0
7661,130,127,128,124,126,125,128,128,0
7664,128,128,128,126,127,128,129,128,0
7668,128,128,128,126,128,127,128,128,0
7671,126,127,128,124,127,125,122,125,0
7674,130,127,127,128,129,128,123,126,0
7678,131,127,128,124,129,129,128,128,0
7681,126,128,127,125,128,128,129,128,0
7685,127,128,127,125,130,124,128,127,0
7687,129,127,130,125,127,128,127,128,0
7693,127,128,127,126,128,128,127,128,0
7690,128,128,129,128,127,128,127,128,0
7696,127,128,127,125,127,126,126,127,0
7700,130,126,128,129,128,127,123,126,0
7703,128,126,128,125,128,127,128,128,0
7706,127,128,130,125,129,128,128,127,0
7709,126,127,127,126,128,129,128,128,0
7713,126,127,128,126,123,128,128,128,0
7716,127,128,127,128,129,130,128,128,0
7720,126,128,128,126,129,129,128,128,0
7724,126,126,128,126,126,127,127,128,0
7730,128,126,126,129,127,128,123,127,0
7734,129,127,127,130,124,130,129,129,0
7737,126,128,129,127,131,129,129,127,0
7742,128,128,127,123,126,126,128,128,0
7746,128,127,127,121,128,126,129,128,0
7750,126,128,127,124,127,127,130,128,0
7752,128,128,126,125,128,128,128,128,0
7757,128,128,127,125,128,126,128,127,0
7761,129,127,128,125,127,126,129,128,0
7764,127,128,128,127,129,127,129,128,0
7767,127,127,126,127,128,129,128,128,0
7772,126,127,126,126,125,128,127,127,0
7777,130,126,126,129,129,128,122,126,0
7781,131,127,127,128,124,126,127,128,0
7784,127,128,126,125,131,128,129,129,0
7787,126,127,128,127,128,129,129,128,0
7790,127,127,128,124,126,128,129,128,0
7793,127,128,128,127,126,130,128,128,0
7797,127,128,127,127,128,129,128,128,0
7800,127,128,128,126,126,127,128,128,0
7803,129,127,130,128,124,126,129,128,0
7806,127,126,128,127,127,128,128,128,0
7810,128,127,128,129,127,129,128,127,0
7812,126,128,127,127,124,126,124,127,0
7815,127,126,127,131,129,129,123,126,0
7819,129,126,128,129,127,126,130,129,0
7822,127,128,127,125,128,131,129,128,0
7825,126,128,127,124,127,127,130,129,0
7828,124,128,128,124,124,128,129,128,0
7832,129,127,127,125,127,127,128,128,0
7837,128,128,127,128,129,127,128,128,0
7842,127,127,126,129,128,128,128,128,0
7846,127,127,127,127,124,128,122,125,0
7850,129,127,128,131,127,126,126,127,0
7853,127,128,127,127,128,131,129,127,0
7856,127,128,127,128,127,129,128,128,0
7859,127,128,128,126,128,126,129,127,0
7862,127,127,127,128,129,126,127,127,0
7864,127,128,128,129,128,127,128,127,0
7867,128,127,127,131,128,126,129,128,0
7870,128,127,128,128,129,123,128,127,0
7873,127,127,126,128,128,126,128,128,0
7876,127,127,127,128,128,128,128,128,0
7879,126,128,126,128,128,127,129,126,0
7883,127,126,128,130,128,128,124,126,0
7886,130,126,125,131,129,129,124,126,0
7890,128,126,127,127,131,131,131,129,0
7894,127,127,127,128,131,129,130,129,0
7898,126,127,126,128,132,130,130,128,0
7902,126,127,127,126,128,125,127,128,0
7906,127,128,126,129,130,129,127,128,0
7909,128,128,127,131,129,130,127,128,0
7912,127,127,129,129,124,127,125,126,0
7915,130,127,126,129,126,127,125,126,0
7918,129,126,126,128,132,128,129,128,0
7921,127,128,127,128,129,127,128,128,0
7924,128,128,127,127,131,128,128,128,0
7927,127,128,128,127,128,127,128,127,0
7931,128,127,128,126,128,128,128,128,0
7934,128,128,127,128,128,127,128,128,0
7938,127,128,127,127,125,126,128,128,0
7942,128,126,128,131,127,127,123,126,0
7946,131,129,128,131,127,127,127,128,0
7950,127,137,127,127,126,127,129,128,0
7953,130,136,128,124,125,127,127,126,0
7955,125,137,128,127,127,130,129,129,0
7958,127,137,128,128,129,128,127,129,0
7962,128,136,129,131,128,128,129,128,0
7967,128,135,128,125,128,126,127,127,0
7972,127,132,129,127,125,127,121,126,0
7976,131,130,126,131,129,130,125,129,0
7979,127,131,129,127,127,130,130,129,0
7982,127,131,130,127,128,129,128,129,0
7985,127,129,128,128,127,128,128,128,0
7989,126,129,127,128,127,128,129,128,0
7993,127,129,126,128,127,127,129,128,0
7997,127,129,127,129,126,125,127,127,0
8016,126,127,130,130,127,127,123,126,0
8021,130,125,126,128,124,126,128,128,0
8025,127,126,127,128,130,130,129,128,0
8029,127,126,127,127,127,126,129,127,0
8031,126,123,127,126,128,127,128,128,0
8036,127,124,129,129,126,128,128,129,0
8040,127,125,127,127,128,128,129,128,0
8045,127,123,127,128,127,128,128,128,0
8049,128,123,129,126,124,127,126,127,0
8052,130,122,127,130,128,129,124,126,0
8055,125,125,128,128,129,131,129,128,0
8059,128,123,129,129,126,127,129,128,0
8062,127,125,130,128,127,128,127,127,0
8065,128,123,129,126,126,126,127,128,0
8072,128,124,128,126,128,128,128,128,0
8076,128,124,130,129,128,126,127,127,0
8080,130,123,124,130,129,129,124,126,0
8082,130,123,126,129,129,126,124,127,0
8086,129,124,129,127,132,130,131,129,0
8089,128,125,129,128,127,127,130,128,0
8092,126,124,127,128,125,126,130,128,0
8095,126,124,127,127,128,128,130,128,0
8100,127,126,127,127,127,129,128,127,0
8102,127,126,126,127,128,126,128,128,0
8106,128,125,127,127,129,124,128,128,0
8111,127,123,127,128,127,126,125,127,0
8115,128,125,128,128,128,129,129,128,0
8119,127,127,128,126,129,128,127,129,0
8122,127,126,128,128,124,125,127,128,0
8127,127,126,128,128,128,127,128,128,0
8131,126,126,128,129,128,128,127,127,0
8134,128,126,128,127,126,127,127,128,0
8138,128,126,129,129,124,128,123,126,0
8141,131,126,126,130,128,129,123,126,0
8144,129,124,128,128,125,128,127,127,0
8151,127,126,127,127,128,127,129,127,0
8155,127,127,127,126,131,128,130,127,0
8158,126,128,128,125,126,126,128,128,0
8162,128,128,127,127,128,127,128,128,0
8166,127,128,125,127,128,127,128,129,0
8170,127,128,127,128,130,122,124,126,0
8174,130,127,127,130,128,128,123,126,0
8177,130,128,127,127,129,128,129,127,0
8181,130,127,129,126,128,128,128,127,0
8184,129,126,130,127,127,126,128,127,0
8188,126,128,127,127,129,129,128,127,0
8193,127,128,127,133,127,128,129,127,0
8199,127,128,127,133,125,126,127,127,0
8203,128,128,129,132,128,126,127,127,0
8206,127,127,128,130,127,127,125,127,0
8209,127,127,126,130,128,128,128,128,0
8213,128,128,126,130,127,127,127,128,0
8216,126,128,127,129,130,128,128,128,0
8219,127,127,126,132,130,130,122,125,0
8223,131,127,126,134,130,130,124,127,0
8226,127,128,127,130,131,128,129,128,0
8229,127,128,127,132,128,130,129,128,0
8233,126,127,127,129,130,127,128,128,0
8236,127,127,130,130,127,128,128,128,0
8239,128,128,129,129,127,127,128,128,0
8242,127,128,128,129,127,127,128,127,0
8246,126,126,128,127,124,126,125,127,0
8249,128,127,126,128,125,127,124,126,0
8253,125,128,131,128,127,129,130,128,0
8256,127,128,128,127,127,128,129,127,0
8260,127,128,129,127,123,126,129,128,0
8263,128,127,129,126,125,128,128,128,0
8266,128,128,128,127,126,129,129,128,0
8270,128,128,127,128,129,128,130,128,0
8273,127,127,127,127,126,127,125,127,0
8276,129,128,127,130,129,129,124,127,0
8279,128,129,128,127,127,129,128,128,0
8292,128,128,128,127,129,127,129,128,0
8295,127,128,127,124,128,126,130,129,0
8299,127,128,129,126,127,127,129,128,0
8303,128,128,127,125,128,128,130,128,0
8308,127,128,127,126,127,127,129,128,0
8313,127,128,128,124,123,126,129,127,0
8317,126,127,128,125,123,127,122,125,0
8321,130,127,125,126,124,125,129,127,0
8326,127,129,128,127,128,129,129,128,0
8330,127,128,128,126,127,126,129,128,0
8333,128,127,126,127,129,128,129,128,0
8337,127,129,127,127,127,128,128,128,0
8341,127,128,126,131,124,127,127,128,0
8344,127,126,127,135,127,128,123,126,0
8347,128,127,126,132,128,129,123,127,0
8352,126,128,127,130,127,129,127,128,0
8355,128,129,127,128,128,128,128,128,0
8358,127,129,127,124,127,126,129,127,0
8367,127,128,128,125,128,127,129,127,0
8371,128,128,126,128,127,127,127,127,0
8375,128,128,128,127,126,126,128,128,0
8379,126,128,128,126,127,125,123,126,0
8382,128,127,125,126,129,128,123,126,0
8385,128,127,127,124,129,128,129,128,0
8389,129,128,128,124,126,127,128,129,0
8392,127,128,127,124,129,127,128,128,0
8407,127,128,127,123,127,126,128,128,0
8411,128,127,127,124,128,128,130,128,0
8414,127,129,128,126,126,129,129,128,0
8418,127,128,128,126,128,127,126,127,0
8421,125,127,128,126,124,129,129,127,0
8424,128,127,129,127,128,130,128,128,0
8428,126,128,128,127,128,129,128,128,0
8431,126,126,128,125,124,130,124,126,0
8436,129,126,129,127,129,129,123,125,0
8441,130,127,128,129,126,124,129,127,0
8445,130,127,131,126,128,127,129,128,0
8448,126,128,126,125,128,127,131,129,0
8451,126,127,127,126,128,128,129,128,0
8454,126,127,128,125,128,128,130,128,0
8458,128,127,127,125,127,128,128,127,0
8461,128,127,127,126,127,123,128,127,0
8464,127,127,128,126,126,127,128,128,0
8468,126,127,128,125,127,128,128,128,0
8472,127,128,126,126,128,129,127,128,0
8478,128,128,127,125,126,126,126,128,0
8482,125,127,126,129,129,128,123,126,0
8485,130,127,125,130,129,128,126,127,0
8489,127,128,126,126,128,128,128,128,0
8492,127,128,126,124,127,127,129,128,0
8495,127,127,127,123,128,127,129,128,0
8498,128,128,125,124,128,128,129,127,0
8502,127,128,127,126,127,128,129,128,0
8505,127,128,127,128,127,126,127,128,0
8508,126,127,129,128,124,126,122,126,0
8512,130,126,127,133,129,128,125,128,0
8515,128,128,129,128,129,128,128,128,0
8519,127,127,128,126,128,127,129,128,0
8522,127,127,128,127,126,126,129,127,0
8525,125,127,129,127,125,127,128,128,0
8529,128,128,126,126,126,128,128,128,0
8532,128,128,128,127,127,127,127,128,0
8537,127,128,127,127,126,129,124,126,0
8540,131,128,127,130,130,129,124,126,0
8554,126,128,126,127,131,127,129,128,0
8558,127,128,128,127,132,128,128,128,0
8565,126,127,128,128,128,127,129,127,0
8571,127,127,127,128,130,128,128,128,0
8575,128,128,127,128,127,128,128,128,0
8579,127,128,127,130,128,128,128,128,0
8582,127,127,127,129,128,129,123,126,0
8586,130,126,126,131,129,129,124,127,0
8589,124,128,129,128,131,128,130,128,0
8593,128,129,127,124,127,130,131,129,0
8596,126,127,127,125,125,127,130,128,0
8599,128,127,127,124,128,127,129,127,0
8603,128,127,128,127,127,128,127,128,0
8606,128,128,127,128,126,127,128,128,0
8609,127,127,128,128,125,125,126,127,0
8613,129,126,127,131,129,129,124,126,0
8616,128,127,127,127,128,128,128,128,0
8619,128,128,128,128,127,128,128,128,0
8622,127,128,127,126,128,128,129,128,0
8629,127,127,128,127,128,127,128,128,0
8632,126,128,127,128,127,128,127,128,0
8635,127,128,127,127,128,128,128,128,0
8638,126,127,128,127,122,128,124,126,0
8643,130,127,126,129,127,128,124,127,0
8646,128,125,130,126,126,127,128,128,0
8649,127,128,129,127,127,127,129,128,0
8653,127,128,128,129,128,127,128,127,0
8656,128,127,128,127,128,128,128,128,0
8660,128,127,128,128,128,128,127,128,0
8663,128,129,128,128,127,127,127,128,0
8667,127,127,127,129,128,126,128,128,0
8670,127,127,127,128,126,124,128,127,0
8678,128,128,127,127,128,127,127,127,0
8683,128,128,128,127,127,128,128,128,0
8690,127,127,127,124,126,125,127,127,0
8694,127,126,128,128,128,128,123,125,0
8697,131,127,127,130,128,129,124,126,0
8700,126,128,127,125,128,131,130,128,0
8702,128,128,125,125,127,128,129,128,0
8705,127,128,129,126,127,128,129,128,0
8714,128,127,128,124,128,128,129,128,0
8717,126,128,126,127,127,129,129,128,0
8720,127,128,128,127,122,127,129,128,0
8723,127,128,128,127,127,127,124,125,0
8730,128,128,128,128,131,129,128,128,0
8727,131,127,126,130,127,130,123,126,0
8733,126,128,127,128,129,127,129,127,0
8736,127,128,128,128,128,126,128,128,0
8750,126,128,127,127,130,128,129,128,0
8754,128,128,127,127,126,126,128,128,0
8757,127,128,129,127,128,125,128,128,0
8760,127,127,127,126,126,126,128,128,0
8763,126,127,128,127,128,128,129,129,0
8767,127,128,127,129,128,128,128,129,0
8771,129,128,127,129,126,127,125,126,0
8774,129,128,127,130,128,129,124,126,0
8785,130,127,127,131,127,128,125,127,0
8790,127,128,129,127,129,130,130,128,0
8794,126,129,126,127,128,128,129,128,0
8798,126,127,127,126,131,127,129,128,0
8801,126,128,128,127,130,128,129,128,0
8804,127,128,127,126,127,128,128,128,0
8809,128,128,128,127,127,127,128,128,0
8813,125,126,127,125,129,124,127,128,0
8817,127,127,127,125,129,127,127,127,0
8820,127,127,127,126,126,128,127,127,0
8863,127,128,128,126,126,127,127,127,0
8868,127,127,129,127,125,126,128,127,0
8872,129,126,126,129,127,129,124,125,0
8934,130,127,127,130,125,127,130,127,0
8947,128,128,127,124,130,129,130,128,0
8953,126,128,126,126,129,127,129,127,0
8962,126,126,128,127,131,127,128,129,0
8967,127,128,127,126,128,129,128,128,0
8999,127,129,125,125,127,128,129,128,0
9008,127,128,127,125,128,127,127,126,0
9017,129,127,126,129,129,128,123,125,0
9067,131,127,126,126,128,127,129,127,0
9080,128,128,128,127,129,128,129,128,0
9090,127,129,127,125,129,127,129,127,0
9098,127,128,129,128,128,128,129,128,0
9104,127,129,127,126,126,129,129,128,0
9109,128,128,128,127,128,128,129,128,0
9112,127,128,128,127,127,127,128,128,0
9116,127,127,128,124,127,125,128,127,0
9119,129,127,128,126,125,125,127,128,0
9123,128,127,127,128,129,129,129,129,0
9126,126,126,127,130,128,129,122,127,0
9129,129,127,127,129,128,128,124,126,0
9134,131,127,127,128,127,129,129,128,0
9139,128,129,126,128,128,127,129,128,0
9143,127,129,126,124,127,126,129,128,0
9146,127,129,128,125,126,126,129,128,0
9149,130,127,129,126,128,127,129,128,0
9153,127,128,128,126,127,128,129,128,0
9156,127,127,127,125,128,127,128,128,0
9159,127,126,128,127,126,126,126,127,0
9162,129,127,128,131,128,130,123,126,0
9166,129,127,127,128,129,129,129,128,0
9169,127,129,127,128,128,128,129,127,0
9173,127,127,127,125,127,128,128,128,0
9176,127,128,127,128,127,127,128,128,0
9180,128,128,126,128,126,128,128,128,0
9183,127,128,127,129,126,127,129,128,0
9186,127,127,128,126,124,124,129,127,0
9190,128,127,130,132,127,129,123,126,0
9193,130,128,127,129,125,127,129,128,0
9195,127,129,127,126,127,129,129,128,0
9198,127,128,129,126,127,125,129,128,0
9201,129,127,128,128,128,128,128,128,0
9205,127,128,128,126,128,129,128,128,0
9208,127,128,129,127,126,127,127,128,0
9211,125,127,128,127,125,126,129,128,0
9214,130,127,127,131,128,128,123,126,0
9217,129,127,127,128,126,125,128,128,0
9220,127,128,129,128,133,127,129,128,0
9223,126,127,130,126,132,127,130,129,0
9226,127,127,127,125,129,125,128,128,0
9230,127,127,127,127,129,127,128,127,0
9233,127,128,127,126,129,126,126,128,0
9269,125,127,128,128,125,125,123,126,0
9282,130,127,127,130,129,129,125,127,0
9298,127,127,130,126,128,128,127,129,0
9308,127,129,127,128,129,130,128,128,0
9314,126,127,128,127,127,125,129,127,0
9335,126,127,129,126,127,127,126,128,0
9340,127,128,127,127,128,129,129,128,0
9345,127,128,126,127,128,128,129,127,0
9348,126,128,129,127,129,123,129,128,0
9352,127,127,126,131,129,129,122,126,0
9355,128,126,127,126,129,128,129,128,0
9359,127,128,126,127,130,128,128,129,0
9362,127,127,129,125,123,127,129,129,0
9365,126,127,127,125,125,127,128,128,0
9368,128,128,125,125,128,128,128,128,0
9372,126,129,127,126,126,128,129,129,0
9375,126,127,127,127,126,126,128,128,0
9378,126,127,127,127,127,126,124,126,0
9382,131,127,127,131,128,127,126,127,0
9385,127,129,127,126,129,129,130,128,0
9388,128,128,128,126,127,127,128,128,0
9403,127,128,130,127,127,127,126,127,0
9406,127,128,128,127,129,129,128,128,0
9411,127,128,128,129,128,129,129,128,0
9415,126,127,128,130,127,124,128,127,0
9419,127,127,126,131,129,129,123,126,0
9423,128,127,127,131,127,125,130,126,0
9426,130,129,129,128,129,128,129,127,0
9429,129,128,130,125,126,126,128,127,0
9433,128,127,129,125,125,127,128,127,0
9438,126,127,128,129,127,127,129,128,0
9443,126,127,128,127,128,126,129,128,0
9448,126,128,126,126,128,126,128,128,0
9451,125,126,127,126,127,126,128,128,0
9454,126,127,128,128,127,127,127,128,0
9458,128,128,127,127,128,129,128,128,0
9461,127,128,127,127,124,127,129,128,0
9470,127,126,126,131,129,127,123,126,0
9473,130,126,126,131,129,130,124,127,0
9477,127,129,127,126,129,127,129,128,0
9480,126,128,127,125,127,127,128,127,0
9483,129,127,128,127,125,126,128,128,0
9486,128,127,130,127,126,127,128,127,0
9490,127,128,129,130,127,127,129,128,0
9493,126,128,127,127,126,127,128,128,0
9496,126,127,129,127,124,125,127,128,0
9500,125,128,126,128,129,129,129,129,0
9503,127,128,129,128,129,129,128,128,0
9541,127,128,124,125,129,128,128,128,0
9555,128,125,125,131,129,127,123,126,0
9567,130,126,125,130,130,129,124,126,0
9572,128,129,128,127,129,127,129,128,0
9576,127,127,127,126,127,126,129,128,0
9604,127,127,128,126,127,125,130,128,0
9613,127,126,129,126,128,127,129,127,0
9627,127,127,128,128,128,129,128,128,0
9634,126,128,127,128,128,128,129,128,0
9644,126,128,127,128,127,126,129,128,0
9652,126,127,128,127,127,128,127,128,0
9660,128,128,127,128,126,128,128,127,0
9666,127,127,127,128,128,128,127,127,0
9669,127,128,129,127,127,127,127,126,0
9673,130,127,126,129,127,129,123,125,0
9676,130,127,125,127,128,128,127,127,0
9680,128,127,126,126,129,128,128,128,0
9683,126,127,127,125,130,126,129,128,0
9686,126,127,127,126,129,127,129,128,0
9690,127,128,126,128,128,126,128,128,0
9693,127,128,127,128,127,127,128,128,0
9696,127,128,129,127,126,126,128,128,0
9700,128,127,129,127,128,128,127,128,0
9703,127,127,127,128,128,129,127,127,0
9706,127,128,129,129,127,126,127,128,0
9710,128,127,130,127,126,125,127,126,0
9714,130,128,126,130,130,130,123,126,0
9716,131,128,127,130,129,127,129,129,0
9720,128,129,127,127,129,129,129,128,0
9723,126,128,127,125,128,128,129,128,0
9726,127,127,127,126,127,128,128,128,0
9729,128,128,127,127,127,128,128,128,0
9732,126,127,127,128,126,128,129,128,0
9738,127,127,129,128,127,127,127,128,0
9735,127,127,127,127,126,123,128,128,0
9742,128,127,129,128,127,129,128,128,0
9745,128,128,126,128,127,129,128,128,0
9748,127,127,127,130,129,130,122,126,0
9750,129,127,127,129,129,129,123,126,0
9754,129,126,128,126,128,127,128,127,0
9758,126,128,127,125,128,128,129,127,0
9763,127,128,128,125,127,127,129,128,0
9766,127,127,129,126,126,126,128,128,0
9768,127,128,129,128,128,127,127,127,0
9771,128,128,128,127,127,128,128,128,0
9774,126,128,127,128,128,126,127,128,0
9778,127,126,130,127,128,123,127,128,0
9781,126,127,127,127,128,128,127,128,0
9784,127,129,126,128,128,128,128,126,0
9787,126,128,127,127,126,126,125,126,0
9790,130,126,126,129,130,128,125,127,0
9793,131,127,127,129,130,128,127,127,0
9795,126,128,129,126,130,128,130,128,0
9798,126,128,127,125,127,126,130,128,0
9801,125,128,129,125,127,127,129,128,0
9806,127,128,128,128,128,129,128,128,0
9811,127,128,128,127,127,128,127,128,0
9814,127,128,126,128,126,127,127,128,0
9818,126,127,130,126,126,128,129,128,0
9820,126,127,127,126,128,129,130,128,0
9824,128,129,126,129,128,130,129,128,0
9828,128,128,127,128,128,129,124,126,0
9831,129,127,126,131,130,129,124,126,0
9834,130,127,127,131,129,131,125,128,0
9837,126,127,127,128,129,129,131,129,0
9840,126,128,127,128,128,129,129,131,0
9844,127,128,128,126,128,125,129,128,0
9877,127,126,127,127,128,125,128,127,0
9888,128,129,127,127,128,127,128,127,0
9900,128,128,127,127,128,127,128,128,0
9908,127,127,127,127,126,126,129,128,0
9911,126,126,128,127,125,128,129,128,0
9914,128,128,129,129,125,126,128,127,0
9917,128,128,129,129,126,125,128,128,0
9929,127,127,127,131,128,129,123,126,0
9933,130,127,127,130,129,130,123,126,0
9937,130,127,130,127,128,129,130,129,0
9941,127,128,128,126,127,128,130,127,0
9944,127,126,127,127,128,128,130,129,0
9948,126,125,127,126,128,128,129,128,0
9951,128,129,127,128,127,128,129,128,0
9954,129,128,128,127,126,127,129,128,0
9957,127,128,128,129,126,126,127,127,0
9960,131,127,128,132,127,129,123,126,0
9963,128,127,129,129,131,129,129,128,0
9966,126,129,127,126,127,128,128,128,0
9970,126,128,128,127,129,126,128,128,0
9973,127,127,130,127,128,127,128,128,0
9977,128,128,128,126,127,128,128,128,0
9980,127,128,128,127,126,125,126,127,0
9983,128,127,129,128,127,124,127,127,0
9989,126,127,128,127,125,126,126,127,0
9992,128,128,128,128,127,128,127,127,0
9995,128,128,128,128,128,129,127,128,0
9998,127,127,128,129,127,122,125,126,0
10002,130,127,127,131,129,127,123,126,0
10005,130,127,127,130,125,125,128,128,0
10009,129,128,129,127,129,128,128,127,0
10013,127,128,129,126,129,127,129,128,0
10016,130,126,130,126,127,127,129,128,0
10020,128,128,127,128,127,127,128,128,0
10025,127,128,127,128,128,128,128,128,0
10031,127,128,127,125,128,126,128,127,0
10036,126,127,127,126,127,127,129,128,0
10039,126,128,127,126,124,127,127,128,0
10042,128,129,128,128,126,127,127,128,0
10044,128,128,128,128,124,126,127,127,0
10048,127,127,129,128,126,128,126,128,0
10052,126,128,127,128,127,128,128,128,0
10055,127,128,126,129,126,129,127,127,0
10057,128,127,128,129,127,125,124,126,0
10060,130,127,126,130,129,129,124,127,0
10065,130,127,127,130,129,128,127,128,0
10068,128,128,127,127,127,129,129,128,0
10071,127,128,126,126,127,128,129,128,0
10073,127,127,127,127,127,128,129,128,0
10078,128,127,127,128,128,127,129,127,0
10082,129,128,127,128,128,128,128,127,0
10085,126,128,128,128,127,127,128,128,0
10089,126,127,127,127,127,127,127,128,0
10092,128,127,127,127,126,128,126,128,0
10095,127,129,126,127,127,128,127,128,0
10098,128,128,127,127,127,127,128,127,0
10101,127,126,129,127,126,126,127,128,0
10105,128,128,128,126,126,129,122,126,0
10109,131,127,126,129,123,128,127,128,0
10112,127,129,127,128,127,128,129,127,0
10115,126,128,127,127,127,127,129,127,0
10118,125,127,126,127,127,128,128,128,0
10125,127,128,127,128,127,128,130,127,0
10128,128,129,127,127,127,128,129,127,0
10132,128,127,128,127,125,127,129,128,0
10141,127,128,127,127,127,129,127,128,0
10144,127,127,128,127,128,129,128,128,0
10147,127,128,128,128,127,128,124,126,0
10151,130,127,127,129,129,128,124,126,0
10154,129,127,128,130,131,129,124,126,0
10157,129,125,128,125,130,130,130,128,0
10160,127,128,128,126,129,128,130,128,0
10164,127,128,128,126,129,126,130,128,0
10168,126,127,128,125,129,126,128,127,0
10171,128,128,126,128,128,129,129,127,0
10176,127,128,127,127,127,128,129,128,0
10179,127,128,128,126,126,126,128,128,0
10182,127,126,128,126,125,128,127,127,0
10185,128,128,127,125,128,126,127,128,0
10189,128,128,127,125,127,127,128,127,0
10192,126,127,129,128,128,128,123,126,0
10196,130,127,127,127,129,127,123,126,0
10199,131,128,128,124,128,128,129,128,0
10203,127,129,126,126,128,129,129,128,0
10206,127,128,127,124,127,126,129,128,0
10215,127,128,128,126,126,126,128,128,0
10219,127,128,127,126,128,128,127,128,0
10223,128,128,128,128,129,128,127,129,0
10227,128,128,129,128,124,126,127,128,0
10230,128,127,129,129,128,128,122,127,0
10234,129,128,127,130,128,129,124,127,0
10237,127,129,129,127,128,128,128,128,0
10241,126,128,127,126,129,127,129,128,0
10245,127,127,128,127,128,127,129,128,0
10249,127,128,127,127,128,127,129,128,0
10254,127,128,126,129,127,128,129,128,0
10259,127,127,126,129,128,127,129,128,0
10264,126,128,128,129,124,127,129,128,0
10267,127,128,126,130,128,128,128,128,0
10270,128,128,126,130,129,127,127,128,0
10273,127,128,128,129,126,126,123,127,0
10276,128,127,127,131,128,128,124,126,0
10279,130,128,127,131,128,129,130,128,0
10282,126,128,126,127,128,129,130,128,0
10285,128,128,127,125,128,128,129,128,0
10288,127,128,128,127,128,125,128,128,0
10291,130,127,128,127,129,129,128,128,0
10295,127,128,127,127,128,129,128,128,0
10298,127,128,127,127,126,125,127,128,0
10301,126,127,128,127,125,126,124,126,0
10304,129,127,128,131,129,129,124,127,0
10308,127,128,128,128,127,128,129,129,0
10311,126,128,128,126,128,128,129,128,0
10314,127,128,130,126,127,127,128,128,0
10317,126,127,127,125,129,129,128,128,0
10322,127,129,129,126,129,128,129,128,0
10325,126,127,128,127,127,127,128,128,0
10328,127,127,129,125,121,126,128,128,0
10331,127,127,126,130,129,129,124,126,0
10334,128,127,128,128,128,129,129,128,0
10337,127,128,127,127,127,127,129,127,0
10340,128,128,128,127,125,126,129,127,0
10342,126,128,128,125,128,128,129,127,0
10345,127,128,129,126,127,128,128,127,0
10348,127,128,129,126,127,127,128,128,0
10351,127,127,129,128,125,124,125,128,0
10356,127,127,128,128,127,128,121,125,0
10363,127,128,128,126,127,127,128,127,0
10360,131,127,126,131,124,124,127,128,0
10366,127,128,128,126,128,127,128,128,0
10369,126,127,127,127,128,127,128,128,0
10372,128,128,127,130,130,129,128,127,0
10375,127,128,127,129,128,129,129,128,0
10379,128,126,128,130,128,127,126,127,0
10382,130,126,128,132,130,129,123,126,0
10386,128,127,127,129,128,128,129,127,0
10389,128,127,128,126,127,129,127,128,0
10392,127,128,128,126,125,125,127,128,0
10395,129,127,129,129,126,127,127,127,0
10398,128,128,128,129,128,129,128,128,0
10401,128,127,127,128,127,129,128,128,0
10404,128,127,128,128,127,126,128,126,0
10409,127,127,128,129,127,128,122,125,0
10412,130,126,126,132,128,127,130,127,0
10415,128,128,127,127,129,127,129,128,0
10418,127,127,127,125,128,126,130,128,0
10422,128,126,128,125,126,127,129,127,0
10425,128,128,128,127,128,127,129,128,0
10428,128,128,127,127,127,129,129,129,0
10432,126,128,127,127,127,126,128,127,0
10435,128,127,127,130,130,129,123,126,0
10437,130,128,126,127,127,128,127,129,0
10440,127,128,127,128,127,129,130,128,0
10444,126,128,126,126,129,128,130,127,0
10447,128,127,128,128,127,127,129,127,0
10452,128,128,127,128,129,127,130,128,0
10459,127,128,126,126,127,128,129,128,0
10462,128,127,127,126,127,127,127,127,0
10465,128,127,128,127,128,128,128,129,0
10468,128,126,127,128,128,128,128,128,0
10471,128,128,128,128,126,128,128,128,0
10474,128,128,129,127,124,126,123,126,0
10477,130,127,126,130,129,128,124,126,0
10480,130,127,128,130,125,125,129,128,0
10484,128,128,128,126,128,128,129,128,0
10487,127,128,128,125,128,127,129,128,0
10490,126,128,127,127,128,127,127,127,0
10493,128,127,128,131,127,127,127,128,0
10496,128,128,128,129,129,129,128,129,0
10499,127,128,127,128,129,128,128,128,0
10503,127,128,128,126,128,128,129,128,0
10507,128,128,127,127,128,130,127,128,0
10512,127,128,127,128,128,129,127,128,0
10515,129,128,126,127,128,128,127,128,0
10518,126,128,127,127,126,126,126,127,0
10525,128,128,126,127,127,127,128,128,0
10528,127,128,126,128,128,128,128,128,0
10532,127,129,126,126,125,127,128,128,0
10537,127,125,125,130,129,129,124,126,0
10540,129,127,127,130,129,129,125,126,0
10544,127,127,127,127,128,129,130,128,0
10548,127,128,127,126,130,128,129,128,0
10551,126,128,126,127,129,127,129,128,0
10554,127,128,128,127,130,128,129,128,0
10558,127,128,128,129,128,128,128,128,0
10565,127,128,126,127,129,127,127,128,0
10569,126,127,127,129,127,127,128,124,0
10572,130,127,127,131,130,129,124,127,0
10575,129,127,130,126,129,129,129,128,0
10578,128,129,128,126,128,129,129,128,0
10582,128,128,129,125,129,127,129,127,0
10585,127,128,129,127,126,126,129,128,0
10588,127,128,129,128,127,127,128,128,0
10591,126,128,129,129,128,128,128,128,0
10594,127,127,129,127,124,125,126,127,0
10597,128,125,128,132,129,128,123,126,0
10601,129,127,127,132,127,127,129,129,0
10604,128,128,126,126,129,129,129,127,0
10608,127,128,131,125,126,125,128,127,0
10611,129,128,127,126,129,125,129,127,0
10614,127,127,127,127,129,129,128,128,0
10618,127,128,126,128,128,128,129,128,0
10621,127,127,127,126,124,126,127,125,0
10624,129,126,125,130,130,130,124,126,0
10627,130,126,126,129,127,127,128,128,0
10631,130,128,126,125,128,128,129,128,0
10635,128,126,129,125,125,126,128,128,0
10638,128,128,129,125,126,127,128,128,0
10641,127,128,127,125,128,129,128,128,0
10645,127,128,127,126,127,128,128,128,0
10649,126,127,128,127,124,126,128,129,0
10655,126,127,127,131,125,126,125,127,0
10658,128,127,128,131,126,127,125,127,0
10661,130,127,130,127,128,127,130,128,0
10666,127,128,128,126,129,128,129,128,0
10672,127,126,129,127,129,127,129,127,0
10677,127,128,128,129,128,127,128,128,0
10680,128,128,127,128,128,127,128,128,0
10683,126,129,128,127,128,127,128,127,0
10686,131,126,127,131,128,128,123,126,0
10689,130,126,128,129,126,128,129,128,0
10692,126,129,128,126,128,128,128,128,0
10694,127,128,128,126,127,127,128,127,0
10698,127,128,128,126,128,127,129,127,0
10701,127,127,128,129,128,128,127,127,0
10704,128,128,127,129,127,128,127,128,0
10707,128,128,129,128,125,125,126,128,0
10710,127,127,129,129,126,126,125,127,0
10712,128,125,127,131,129,129,124,126,0
10715,126,128,130,126,129,128,129,128,0
10718,127,128,128,128,129,126,129,128,0
10721,127,127,129,127,128,126,129,128,0
10724,128,127,128,127,129,127,128,128,0
10726,126,127,127,128,130,128,127,128,0
10730,128,128,127,129,129,129,128,129,0
10733,127,126,128,127,124,128,124,126,0
10736,129,127,126,130,129,129,124,127,0
10739,128,128,129,128,128,128,129,128,0
10742,128,128,128,127,126,127,129,128,0
10745,128,128,129,127,124,127,129,128,0
10748,127,128,128,127,127,128,129,128,0
10752,127,128,127,129,127,129,129,128,0
10755,128,128,127,128,127,127,130,128,0
10759,126,127,129,130,130,128,125,126,0
10763,128,126,127,129,128,128,124,126,0
10769,125,128,126,127,129,128,130,128,0
10772,126,128,129,124,128,127,129,128,0
10776,127,128,129,125,128,126,129,127,0
10779,127,128,127,127,127,127,129,127,0
10782,127,127,127,128,127,127,128,128,0
10785,126,128,127,128,126,127,128,127,0
10788,127,127,127,126,120,126,128,127,0
10791,127,128,128,127,122,125,128,127,0
10793,128,129,128,128,128,129,127,128,0
10796,127,128,126,128,129,128,128,128,0
10800,126,129,127,128,127,127,127,127,0
10804,129,127,127,131,130,129,122,125,0
10807,131,127,127,131,125,125,128,128,0
10811,128,128,127,128,128,128,128,127,0
10815,128,128,126,127,129,127,128,128,0
10819,126,127,127,127,127,126,127,128,0
10824,128,128,128,128,127,128,128,128,0
10828,127,127,128,128,127,127,128,128,0
10834,126,127,128,127,128,123,129,128,0
10838,127,127,129,128,129,127,129,128,0
10842,127,127,128,127,128,128,128,128,0
10845,128,127,128,127,128,127,129,127,0
10848,127,128,128,127,128,123,123,126,0
10852,129,128,127,129,128,128,124,126,0
10855,131,127,129,129,125,125,130,128,0
10858,127,128,128,125,129,127,129,128,0
10861,127,128,129,126,129,128,129,128,0
10865,126,127,129,126,130,127,128,128,0
10873,127,128,127,126,128,128,127,128,0
10880,127,128,127,128,128,127,128,128,0
10884,126,128,127,126,127,126,127,128,0
10887,127,127,128,128,127,130,124,127,0
10890,130,127,127,130,126,129,129,128,0
10893,127,127,127,129,129,130,129,128,0
10897,128,128,128,126,128,129,128,128,0
10900,127,127,130,126,126,126,127,127,0
10903,127,128,127,127,127,129,128,128,0
10906,128,128,127,128,126,126,128,128,0
10910,128,128,128,129,127,127,128,128,0
10913,126,126,127,128,127,125,125,125,0
10915,130,126,128,129,128,128,124,126,0
10919,128,126,127,125,128,130,130,128,0
10922,126,129,127,125,128,128,129,128,0
10925,129,127,128,125,126,126,129,128,0
10928,127,128,127,128,129,128,129,128,0
10931,126,127,128,129,128,128,129,127,0
10933,127,128,128,127,127,127,128,127,0
10938,127,127,129,126,127,127,125,126,0
10941,129,128,127,131,128,129,123,125,0
10944,129,126,127,125,129,128,129,128,0
10947,127,129,127,126,130,128,130,128,0
10950,128,127,129,128,126,127,125,127,0
10953,129,127,127,130,128,128,124,127,0
10956,130,128,129,127,128,128,128,128,0
10961,127,128,127,127,129,129,128,128,0
10963,127,127,129,127,127,127,127,128,0
10968,127,127,127,128,129,128,129,128,0
10972,127,128,126,129,128,129,128,129,0
10975,128,127,127,127,128,130,129,128,0
10979,127,127,127,127,127,127,128,128,0
10983,128,127,128,127,127,126,128,127,0
10989,126,128,127,127,128,128,129,128,0
10992,128,128,128,127,128,127,126,127,0
10997,127,127,127,130,129,127,123,125,0
11000,130,127,127,130,129,127,124,126,0
11003,127,127,127,126,128,127,128,128,0
11007,127,128,128,126,128,128,130,128,0
11010,127,128,128,125,125,126,127,129,0
11014,128,128,129,126,127,127,128,128,0
11016,128,128,128,129,126,129,128,128,0
11020,127,128,128,129,126,129,128,127,0
11024,127,128,128,129,128,128,125,126,0
11028,131,126,128,131,127,129,124,126,0
11031,130,127,128,125,128,130,128,129,0
11034,126,128,127,128,131,128,128,129,0
11037,126,128,129,126,127,127,129,128,0
11042,127,128,130,129,129,128,129,127,0
11045,127,128,128,127,127,128,127,128,0
11048,126,128,127,129,126,129,128,128,0
11050,127,129,128,129,121,127,127,127,0
11054,127,127,130,131,128,128,122,126,0
11058,129,127,126,130,124,128,128,128,0
11063,128,128,126,126,129,128,127,128,0
11067,127,128,126,124,127,127,126,128,0
11070,127,127,127,126,124,127,127,128,0
11075,128,127,128,128,127,125,126,128,0
11078,128,128,126,126,127,127,128,128,0
11082,127,128,126,126,126,125,124,126,0
11085,129,127,125,129,128,128,123,126,0
11091,130,127,126,130,123,128,128,128,0
11094,128,128,128,127,128,128,129,129,0
11098,126,128,126,126,129,127,129,128,0
11104,126,127,127,128,130,124,128,128,0
11109,130,128,128,127,125,126,128,128,0
11112,129,127,128,127,129,128,129,128,0
11115,127,128,127,127,129,128,130,128,0
11118,126,127,129,127,123,127,128,127,0
11120,128,127,129,129,126,127,127,128,0
11123,128,127,128,130,127,129,127,128,0
11129,128,127,130,128,125,126,125,127,0
11132,129,127,127,131,129,129,122,126,0
11135,129,126,128,132,126,126,129,128,0
11139,127,128,129,129,128,129,129,128,0
11141,127,128,129,129,129,127,131,128,0
11144,126,128,131,126,128,127,130,128,0
11147,127,127,129,126,128,128,129,128,0
11150,127,128,129,128,128,128,128,128,0
11153,127,128,128,127,127,129,130,127,0
11156,127,128,129,127,125,125,128,127,0
11159,128,127,128,129,127,126,129,128,0
11162,128,128,127,128,127,126,127,128,0
11165,128,127,127,127,126,125,128,127,0
11168,128,127,126,130,129,128,124,126,0
11171,128,127,126,130,129,128,126,127,0
11173,128,128,126,129,130,128,129,129,0
11176,126,128,126,128,129,128,128,128,0
11180,126,128,126,128,128,127,129,128,0
11183,128,127,129,129,127,128,129,127,0
11186,128,128,127,128,127,128,129,127,0
11190,127,128,127,127,127,127,128,127,0
11194,128,127,127,125,124,124,128,127,0
11198,127,126,126,128,127,128,128,128,0
11207,128,128,125,127,129,128,127,127,0
11212,128,128,125,127,126,127,127,128,0
11215,128,124,126,130,129,127,122,125,0
11219,131,126,127,129,127,128,124,126,0
11223,130,125,130,125,128,129,129,128,0
11226,127,128,127,125,127,128,128,128,0
11230,128,128,127,126,128,129,129,127,0
11234,127,128,128,128,127,125,128,128,0
11237,127,128,128,128,129,128,127,128,0
11240,128,128,127,128,127,127,128,128,0
11244,127,127,129,126,128,127,127,128,0
11247,126,127,128,128,123,127,128,128,0
11251,126,127,128,129,125,128,127,128,0
11254,127,129,128,129,126,127,127,127,0
11257,126,127,129,128,124,124,126,126,0
11260,129,127,128,129,127,128,124,125,0
11263,130,128,127,127,131,130,129,128,0
11267,128,128,127,124,129,129,129,128,0
11271,128,127,128,125,129,128,129,127,0
11274,128,125,127,127,126,127,125,127,0
11276,128,125,130,128,126,129,130,128,0
11282,128,129,127,127,128,129,129,128,0
11286,126,128,126,125,128,127,128,128,0
11289,128,128,127,126,129,127,129,128,0
11292,128,129,127,126,127,127,128,127,0
11296,128,128,126,128,129,128,127,128,0
11300,128,128,126,128,123,127,128,128,0
11303,127,127,127,128,123,125,126,129,0
11306,127,128,127,127,126,128,128,129,0
11311,127,128,127,127,128,129,127,128,0
11314,127,128,127,127,127,126,128,128,0
11318,130,127,127,130,128,129,123,126,0
11323,129,127,128,130,128,129,124,127,0
11328,126,128,126,126,128,129,129,129,0
11331,127,129,127,127,129,127,128,128,0
11334,126,128,128,126,129,127,128,128,0
11337,127,128,128,125,129,128,129,128,0
11340,127,128,128,126,130,126,129,128,0
11343,127,128,127,128,127,123,128,127,0
11346,126,128,129,128,124,126,123,126,0
11350,129,127,127,132,129,128,124,127,0
11352,127,128,127,128,128,128,128,128,0
11355,126,128,126,129,128,128,129,128,0
11358,126,127,126,130,128,129,128,128,0
11361,128,127,128,128,127,129,127,128,0
11368,127,128,126,129,128,130,128,128,0
11371,128,128,128,128,127,125,127,127,0
11374,129,126,127,131,129,127,124,126,0
11377,129,126,127,129,127,127,126,128,0
11381,127,128,126,125,130,129,129,128,0
11384,128,129,126,125,129,129,130,128,0
11387,127,127,126,127,128,127,130,127,0
11390,127,128,128,127,127,128,128,128,0
11393,127,128,126,127,126,127,130,127,0
11397,128,128,127,126,127,127,129,128,0
11401,127,128,128,126,123,128,129,128,0
11404,127,126,128,127,126,126,127,127,0
11408,129,128,129,128,126,127,128,127,0
11410,128,128,128,129,127,127,127,127,0
11413,126,127,128,129,125,125,125,126,0
11416,129,128,126,132,129,129,123,127,0
11421,129,128,127,130,124,129,130,129,0
11428,128,129,127,128,129,128,129,129,0
11432,127,128,128,125,127,126,128,128,0
11435,129,128,128,125,129,125,127,128,0
11438,128,129,127,125,128,129,128,127,0
11442,128,128,127,126,128,128,127,129,0
11446,126,128,126,128,127,128,122,127,0
11449,131,126,126,131,129,128,123,127,0
11451,128,126,129,127,126,129,130,128,0
11455,127,128,127,129,127,128,129,128,0
11457,126,128,126,127,126,130,129,128,0
11460,128,128,128,125,127,131,131,128,0
11463,130,129,126,126,126,129,129,128,0
11466,127,129,127,126,127,129,128,129,0
11471,127,127,127,127,123,125,129,128,0
11475,127,126,127,131,127,128,123,126,0
11478,130,126,127,129,127,127,129,127,0
11482,128,127,128,128,129,128,129,128,0
11485,125,127,127,127,130,125,130,127,0
11489,126,128,128,127,129,129,129,128,0
11492,127,127,131,126,129,129,130,128,0
11494,128,128,128,126,130,129,128,128,0
11497,126,128,128,126,130,125,126,127,0
11500,127,127,129,130,130,128,122,126,0
11503,130,127,127,129,124,126,126,127,0
11506,126,128,127,126,128,127,128,129,0
11509,127,128,128,125,128,126,129,128,0
11512,126,126,130,126,127,126,126,128,0
11515,127,127,127,126,128,128,127,128,0
11518,127,128,127,128,128,129,128,128,0
11523,128,128,130,127,127,126,128,128,0
11528,127,126,132,130,126,129,122,126,0
11533,130,126,129,131,128,129,123,125,0
11536,128,128,129,128,128,130,131,128,0
11538,128,129,128,125,128,127,130,128,0
11541,126,128,130,126,129,129,130,128,0
11544,127,127,128,127,127,127,128,128,0
11549,128,128,127,127,127,128,128,128,0
11552,129,128,128,129,127,126,128,127,0
11555,127,127,130,126,128,126,129,128,0
11559,126,127,127,126,126,128,128,128,0
11563,129,128,127,127,127,128,128,127,0
11565,126,128,126,127,126,126,128,127,0
11569,128,126,129,129,121,126,123,125,0
11572,129,127,126,131,127,127,123,127,0
11575,127,128,128,127,127,128,128,128,0
11578,128,128,127,125,127,127,128,128,0
11583,127,126,127,126,126,126,128,127,0
11585,127,127,126,130,129,127,127,128,0
11589,128,127,127,129,128,127,128,128,0
11592,127,128,127,129,127,126,128,127,0
11595,126,127,127,129,126,125,128,128,0
11598,127,127,126,128,124,127,128,128,0
11602,128,128,126,129,128,128,127,128,0
11605,128,128,126,130,125,127,127,128,0
11610,128,127,127,132,129,129,123,126,0
11614,131,127,126,130,128,129,122,127,0
11618,126,127,126,127,129,129,128,127,0
11620,127,128,127,125,127,128,128,127,0
11623,129,128,129,127,128,127,129,127,0
11627,127,127,127,126,128,127,128,127,0
11632,127,128,127,125,126,128,128,128,0
11636,127,128,127,127,127,128,129,128,0
11642,127,127,128,126,127,127,128,127,0
11646,127,127,129,127,126,127,128,128,0
11649,128,127,129,127,128,128,128,127,0
11651,128,128,128,128,128,127,128,127,0
11654,128,127,129,130,126,126,124,127,0
11657,129,127,128,129,127,127,125,126,0
11660,129,127,127,125,130,130,130,128,0
11664,128,128,128,127,128,129,129,128,0
11667,127,128,127,125,128,128,129,127,0
11671,127,127,128,127,125,128,127,127,0
11674,128,128,129,125,129,129,129,128,0
11677,128,129,127,128,128,127,129,128,0
11680,125,127,128,127,124,125,123,126,0
11682,130,127,127,130,130,128,123,126,0
11685,130,127,127,127,130,128,128,128,0
11690,127,128,127,128,130,129,128,128,0
11693,127,128,127,127,129,128,129,128,0
11695,127,128,128,127,128,127,129,128,0
11698,127,128,126,128,129,128,127,128,0
11701,128,128,127,126,129,128,128,128,0
11708,127,128,128,128,129,124,127,127,0
11711,127,127,128,128,128,126,127,129,0
11714,126,128,128,128,127,126,128,128,0
11716,128,128,128,129,127,127,128,128,0
11720,128,128,128,127,124,125,127,127,0
11724,129,127,127,129,127,128,124,126,0
11727,130,127,128,130,128,127,130,128,0
11730,127,128,127,125,127,129,130,128,0
11733,127,128,127,125,128,128,129,128,0
11741,126,128,127,125,128,128,128,128,0
11745,127,127,128,128,127,129,128,128,0
11749,127,128,127,127,128,129,127,128,0
11753,126,128,127,127,126,128,127,127,0
11755,125,127,127,129,126,129,122,126,0
11758,131,127,127,130,127,129,124,127,0
11761,130,128,126,126,127,129,128,129,0
11764,127,128,127,124,127,127,129,128,0
11767,129,128,128,125,128,127,128,128,0
11770,128,127,127,127,128,128,128,128,0
11773,128,127,128,126,128,127,129,128,0
11776,127,128,127,128,128,127,129,127,0
11779,126,128,127,127,126,128,124,126,0
11782,128,127,127,130,128,128,124,126,0
11785,128,127,127,126,129,130,130,129,0
11788,127,129,128,127,129,127,129,129,0
11792,127,127,129,125,127,128,130,129,0
11795,126,127,127,128,128,129,129,128,0
11799,127,128,128,125,128,128,129,128,0
11803,127,128,127,127,129,128,129,128,0
11806,126,127,129,127,129,127,128,128,0
11809,126,127,128,127,127,128,128,128,0
11812,128,128,127,127,129,128,129,127,0
11815,127,128,128,127,125,126,127,127,0
11818,128,127,127,132,129,129,124,126,0
11820,129,126,127,129,127,127,125,127,0
11825,126,128,128,128,129,129,130,128,0
11829,127,128,127,128,126,129,129,127,0
11832,127,126,129,128,128,127,128,127,0
11835,126,127,128,127,128,127,130,128,0
11839,127,127,129,128,127,128,128,127,0
11844,128,128,127,126,125,128,129,127,0
11849,128,127,127,127,124,125,124,126,0
11855,129,127,128,129,126,126,124,126,0
11858,129,127,129,125,129,128,129,128,0
11863,130,129,128,128,129,130,130,128,0
11866,128,128,130,127,127,126,128,128,0
11870,127,128,130,128,129,128,128,128,0
11873,127,128,128,129,129,129,128,127,0
11876,128,128,127,129,127,129,128,128,0
11879,128,127,128,127,122,128,127,128,0
11882,126,126,128,126,126,127,128,128,0
11884,128,128,129,127,126,130,128,128,0
11887,128,128,128,126,128,128,128,128,0
11890,127,127,127,130,130,128,123,126,0
11893,130,126,129,130,129,128,123,126,0
11896,129,127,131,127,131,126,128,127,0
11900,128,129,128,125,129,127,129,127,0
11903,127,126,129,127,129,126,128,127,0
11905,128,126,129,128,128,127,129,128,0
11908,127,128,128,130,129,127,128,128,0
11912,127,128,128,129,128,126,127,128,0
11915,128,128,127,127,128,126,127,126,0
11918,127,127,129,126,125,123,127,128,0
11921,127,127,128,127,128,128,128,127,0
11925,128,128,128,128,126,127,127,128,0
11928,127,128,128,126,128,124,129,127,0
11933,127,126,127,128,127,126,123,126,0
11938,130,127,127,130,129,128,123,126,0
11941,126,129,126,125,128,126,128,128,0
11944,126,128,127,125,129,126,128,127,0
11949,127,126,128,126,129,126,129,128,0
11952,127,128,126,126,126,128,128,128,0
11955,127,128,126,127,127,126,128,128,0
11960,127,128,126,126,128,126,128,127,0
11965,127,126,127,131,128,128,124,126,0
11968,131,127,127,131,127,126,131,128,0
11971,127,128,126,126,126,128,129,128,0
11974,127,128,126,127,128,127,130,128,0
11979,126,128,128,127,127,128,131,128,0
11982,127,127,127,125,129,129,129,127,0
11984,128,127,126,127,126,128,129,128,0
11987,127,128,127,125,128,128,129,128,0
11991,127,127,128,126,125,126,127,128,0
11995,127,126,128,127,130,126,127,127,0
11998,129,128,127,129,128,129,127,128,0
12001,127,128,128,127,128,124,128,128,0
12004,127,127,128,126,127,128,121,126,0
12007,129,127,126,130,128,129,123,126,0
12010,130,127,128,124,127,129,127,128,0
12013,127,128,126,127,127,127,129,127,0
12016,130,128,130,127,128,125,128,127,0
12020,127,127,128,127,128,128,129,127,0
12024,127,128,128,128,128,129,128,128,0
12027,127,128,126,127,127,127,127,128,0
12030,125,128,128,125,125,127,127,128,0
12034,128,127,128,126,127,127,127,127,0
12042,127,128,128,128,130,128,128,127,0
12046,127,128,127,129,127,127,128,127,0
12050,126,125,128,132,128,128,124,126,0
12054,130,126,127,132,129,129,124,126,0
12058,129,127,127,129,130,131,130,128,0
12062,126,128,127,128,129,129,129,127,0
12067,127,128,128,128,128,127,129,127,0
12072,126,128,129,129,128,128,129,127,0
12080,127,128,128,129,127,128,128,128,0
12084,127,128,127,129,125,127,129,127,0
12087,127,127,128,129,124,126,128,127,0
12090,126,127,128,129,126,127,128,128,0
12093,128,128,128,128,126,129,127,128,0
12097,127,128,127,128,128,128,128,128,0
12100,126,126,127,128,126,126,128,127,0
12104,126,125,127,131,128,129,123,126,0
12107,129,127,127,129,127,127,126,125,0
12110,128,129,127,126,128,128,129,128,0
12113,127,128,127,126,128,127,129,128,0
12115,126,127,126,126,129,127,129,128,0
12118,127,128,127,125,128,128,128,128,0
12122,127,128,127,125,128,128,128,128,0
12125,127,128,129,127,124,125,128,127,0
12128,127,127,128,126,129,127,127,128,0
12131,128,127,129,127,127,127,128,128,0
12135,127,128,127,129,130,128,129,128,0
12138,127,128,129,128,128,129,123,126,0
12141,129,126,128,131,130,128,124,125,0
12144,131,127,127,129,126,126,129,128,0
12147,126,128,129,128,129,129,128,128,0
12151,127,128,127,127,131,129,129,127,0
12154,127,128,128,127,129,128,128,127,0
12157,126,128,127,128,130,129,129,128,0
12160,128,129,127,129,129,128,129,129,0
12163,127,128,128,129,128,127,129,127,0
12166,127,128,128,128,128,127,127,127,0
12170,127,129,127,128,128,128,128,128,0
12174,127,129,129,128,128,127,128,128,0
12178,127,128,128,127,126,126,129,128,0
12182,128,127,127,130,128,129,123,126,0
12188,131,126,128,130,128,128,126,128,0
12192,126,128,127,126,130,131,131,129,0
12195,128,128,127,125,126,127,127,128,0
12198,129,128,129,126,126,127,128,128,0
12201,129,128,130,127,125,126,128,127,0
12204,128,129,126,127,129,128,130,127,0
12207,127,128,127,127,128,127,126,127,0
12209,130,126,128,125,127,127,128,128,0
12213,128,126,128,127,124,127,127,127,0
12216,128,128,127,127,128,129,128,127,0
12220,127,129,127,126,126,127,125,127,0
12224,128,128,127,131,129,129,123,126,0
12227,129,127,128,130,129,129,125,128,0
12230,125,128,129,128,129,131,129,128,0
12233,128,128,129,127,128,129,129,129,0
12236,126,127,127,127,128,125,129,128,0
12241,125,128,128,126,126,127,128,128,0
12244,128,128,127,127,128,127,129,128,0
12247,128,129,127,126,127,127,128,127,0
12250,127,127,128,128,123,125,128,128,0
12254,127,127,127,128,127,125,125,126,0
12257,129,127,127,131,127,126,125,127,0
12260,126,129,127,129,129,128,128,128,0
12264,127,128,127,126,128,125,128,126,0
12267,130,127,128,128,124,127,128,127,0
12271,128,129,127,128,127,129,127,128,0
12274,128,128,127,127,125,128,127,128,0
12277,128,127,128,128,129,128,123,126,0
12281,130,127,127,129,131,128,124,126,0
12283,131,127,127,126,132,128,129,128,0
12288,128,127,127,126,128,127,128,128,0
12293,126,126,127,125,128,130,130,129,0
12301,127,128,128,127,127,127,129,128,0
12304,127,128,127,125,128,126,128,128,0
12307,127,127,127,128,128,127,129,128,0
12310,126,127,128,126,125,125,129,127,0
12313,127,126,127,130,126,125,126,127,0
12319,129,126,127,129,122,131,130,128,0
12321,127,128,127,127,129,129,130,128,0
12324,127,128,127,129,128,126,130,127,0
12327,127,128,130,129,129,127,128,128,0
12331,128,128,128,128,129,129,128,128,0
12334,127,129,127,127,128,129,128,128,0
12345,128,129,128,127,128,126,125,126,0
12349,130,127,126,131,128,129,123,126,0
12352,130,127,129,129,125,128,128,127,0
12356,128,128,130,129,128,128,128,127,0
12359,128,128,128,128,128,126,127,128,0
12362,127,128,128,126,126,125,128,127,0
12365,126,127,129,129,126,127,128,128,0
12369,126,127,126,127,129,127,129,128,0
12380,126,128,127,127,129,127,129,128,0
12384,127,127,128,128,123,126,127,128,0
12387,128,127,128,127,129,129,128,128,0
12391,128,128,128,128,128,129,128,128,0
12394,127,128,128,127,127,127,129,127,0
12397,127,127,127,131,130,130,123,126,0
12400,129,127,128,131,128,130,125,127,0
12403,128,127,131,128,128,129,129,128,0
12407,127,128,129,127,127,127,129,127,0
12411,126,128,128,125,126,127,130,128,0
12415,127,128,128,128,128,128,128,128,0
12424,128,128,127,128,127,128,128,128,0
12427,127,128,128,125,127,127,128,127,0
12431,127,127,126,126,121,127,122,126,0
12434,129,127,126,128,127,129,123,127,0
12437,126,128,126,127,127,131,131,129,0
12441,128,128,127,126,127,127,129,129,0
12444,127,128,127,124,127,128,129,128,0
12447,128,128,127,127,129,127,128,128,0
12453,128,128,127,128,127,128,128,128,0
12456,127,128,127,126,127,127,129,128,0
12459,126,127,128,127,126,125,128,128,0
12463,127,127,128,128,125,127,128,127,0
12466,128,128,127,128,128,125,128,127,0
12469,127,128,127,126,127,128,126,128,0
12472,127,127,125,131,129,128,124,126,0
12475,131,127,127,130,128,129,124,126,0
12487,129,126,128,128,131,128,130,128,0
12491,127,128,127,128,129,126,129,128,0
12495,126,126,127,126,129,125,129,128,0
12498,126,128,127,127,130,128,129,127,0
12502,127,128,128,127,128,128,128,127,0
12505,128,129,128,127,128,128,128,128,0
12509,126,128,130,128,127,127,129,127,0
12514,130,127,127,130,129,129,123,127,0
12518,130,127,129,127,131,129,128,129,0
12520,127,129,128,125,129,127,129,128,0
12523,128,126,128,128,127,127,128,126,0
12526,127,128,129,129,129,126,129,128,0
12529,127,128,127,128,127,127,130,128,0
12535,127,129,127,128,127,128,129,128,0
12539,129,128,127,128,126,128,122,127,0
12544,131,128,127,130,132,129,122,125,0
12549,131,127,126,128,130,130,128,129,0
12553,127,129,127,127,128,130,125,126,0
