Start Recording
5,127,129,126,128,129,129,129,129,0
10,127,128,125,126,125,128,130,125,0
15,124,127,128,127,129,126,128,128,0
23,128,127,129,125,129,129,128,129,0
26,130,128,126,126,131,128,127,129,0
30,129,128,128,127,124,127,126,126,0
33,126,128,128,129,131,126,127,128,0
36,129,126,127,128,130,129,129,129,0
40,127,128,126,127,128,129,127,128,0
43,128,128,126,127,127,130,128,128,0
46,127,127,127,125,124,129,128,127,0
50,127,127,126,128,128,129,128,129,0
53,127,128,126,128,126,128,128,129,0
57,130,128,129,128,126,128,126,127,0
60,124,127,128,127,125,126,128,127,0
63,127,127,127,127,127,129,128,128,0
66,125,128,126,128,128,127,127,129,0
70,127,128,127,127,126,126,128,128,0
74,127,126,128,130,135,125,129,127,0
78,129,127,131,130,133,125,126,129,0
81,129,128,126,126,128,128,128,129,0
85,128,129,125,126,126,128,127,128,0
88,129,128,127,126,123,128,128,127,0
91,126,128,127,126,125,129,128,128,0
95,126,128,126,129,130,128,128,128,0
98,125,129,126,127,125,127,128,128,0
101,128,127,128,126,126,126,127,127,0
107,126,127,127,127,126,128,127,128,0
111,128,128,126,128,128,128,127,129,0
114,130,128,127,127,127,129,127,126,0
117,128,127,126,127,127,124,131,128,0
121,133,126,129,131,137,125,127,128,0
124,126,127,128,128,126,129,127,128,0
128,129,128,128,126,127,127,127,126,0
131,125,126,127,124,126,124,128,126,0
135,130,127,131,130,131,126,126,127,0
139,126,128,128,125,130,129,128,129,0
142,127,128,126,125,127,129,128,129,0
145,129,128,126,125,124,129,128,128,0
148,128,128,128,125,124,129,127,127,0
152,126,128,125,127,130,128,128,128,0
155,127,127,126,128,128,128,130,128,0
158,128,127,128,126,124,125,128,127,0
161,127,126,131,129,134,125,126,128,0
164,128,128,128,127,126,129,128,129,0
185,129,128,128,127,128,129,128,128,0
190,127,128,127,127,123,126,127,127,0
194,126,127,127,126,124,125,127,126,0
198,127,127,126,126,130,128,129,130,0
202,127,128,125,128,129,128,129,128,0
206,126,128,127,126,127,128,128,126,0
209,126,126,128,131,134,126,127,128,0
213,129,126,128,127,125,129,128,128,0
216,129,128,127,129,129,130,129,129,0
219,128,128,126,126,123,128,128,126,0
222,123,128,127,126,125,127,127,126,0
226,130,128,128,128,127,129,128,129,0
232,128,128,127,128,127,128,127,128,0
235,129,128,129,127,125,128,127,126,0
239,125,127,127,127,126,125,127,127,0
242,130,127,128,130,132,124,128,129,0
245,128,128,126,128,130,129,128,128,0
249,128,127,127,126,127,128,127,127,0
253,124,125,128,130,133,125,127,128,0
256,128,127,130,130,126,129,129,128,0
259,128,129,128,127,130,128,128,129,0
262,129,128,128,127,123,129,126,126,0
267,127,128,127,125,124,128,127,127,0
270,129,128,127,127,125,127,127,128,0
274,129,127,128,129,128,129,129,128,0
278,126,127,126,127,125,128,128,127,0
281,127,127,128,126,122,125,127,128,0
284,127,127,129,131,131,125,125,127,0
288,128,128,127,127,130,129,127,128,0
291,128,128,126,128,127,129,128,127,0
295,126,125,127,126,123,127,126,127,0
299,124,128,127,127,125,128,127,128,0
302,126,128,126,129,129,128,127,128,0
304,128,129,128,128,129,128,128,128,0
307,127,128,128,127,125,127,128,127,0
310,130,126,128,130,132,125,125,127,0
313,125,128,126,127,130,129,129,130,0
321,127,128,126,127,125,128,126,126,0
324,128,126,130,125,125,127,127,125,0
327,125,127,127,127,123,128,127,128,0
330,126,128,126,129,130,128,130,129,0
332,127,128,127,128,128,128,128,128,0
339,125,128,126,126,125,128,129,126,0
342,128,127,128,131,134,125,126,128,0
345,126,128,128,128,127,127,127,128,0
357,129,128,127,127,125,128,126,127,0
361,130,127,128,126,123,127,126,127,0
364,128,127,127,126,126,128,128,129,0
367,129,128,126,127,127,127,127,129,0
371,130,127,129,128,127,127,126,126,0
374,128,127,127,128,126,128,127,125,0
377,128,127,131,130,139,125,128,127,0
380,130,125,128,128,130,129,128,129,0
393,129,127,126,128,128,128,128,129,0
398,130,128,128,126,127,125,127,128,0
401,129,126,129,128,131,126,127,128,0
404,123,126,129,126,125,128,128,129,0
408,128,128,128,129,127,130,128,128,0
412,127,127,126,128,128,130,127,127,0
415,126,127,127,126,125,129,129,128,0
418,128,128,127,128,129,128,127,128,0
422,129,128,128,129,130,127,127,127,0
426,127,127,127,126,125,128,126,126,0
428,126,126,129,130,130,125,127,128,0
433,127,127,127,127,126,129,127,128,0
435,128,128,128,126,127,128,128,128,0
438,128,127,127,128,125,128,127,125,0
442,127,127,128,129,131,126,128,127,0
444,128,127,126,127,127,129,128,129,0
448,126,128,126,126,128,129,127,128,0
450,130,127,128,128,126,128,128,125,0
454,125,128,127,125,122,126,129,127,0
464,128,128,126,127,128,127,127,128,0
469,128,128,128,129,131,129,129,128,0
472,127,127,127,127,128,127,127,126,0
477,127,127,129,130,130,126,127,127,0
479,128,126,129,130,125,129,129,129,0
482,129,128,127,128,127,128,128,128,0
486,128,128,129,127,124,128,128,128,0
488,123,128,130,129,131,126,128,127,0
499,127,127,129,130,124,129,129,129,0
503,127,128,126,127,130,129,127,128,0
506,129,128,126,127,125,129,127,128,0
511,129,127,126,124,122,126,126,127,0
514,130,127,129,129,126,130,127,128,0
518,128,128,128,127,129,129,127,128,0
521,128,127,127,127,125,129,127,127,0
524,128,128,128,124,123,128,128,126,0
535,129,127,129,130,130,125,128,129,0
538,130,129,126,128,128,128,127,128,0
541,128,128,129,127,128,128,128,124,0
544,126,126,127,125,126,125,126,126,0
551,130,127,129,129,131,125,127,128,0
554,127,128,126,127,130,128,127,128,0
557,129,128,127,129,129,129,128,127,0
560,124,127,129,129,127,126,126,126,0
564,127,127,128,128,129,125,130,130,0
568,129,128,127,128,128,129,128,129,0
571,128,127,125,127,127,129,128,128,0
574,130,127,127,126,123,127,128,127,0
578,125,127,130,130,132,125,126,128,0
582,128,129,126,127,127,128,128,129,0
587,128,128,126,128,127,128,128,129,0
590,129,128,125,127,124,124,126,127,0
594,128,127,129,129,129,125,126,127,0
597,130,128,129,127,129,127,128,128,0
600,127,129,128,128,127,128,127,128,0
609,128,128,126,126,122,128,127,124,0
615,123,127,129,131,132,125,126,127,0
618,126,128,126,127,129,129,128,129,0
622,127,128,128,128,126,128,126,127,0
629,128,128,127,125,124,128,128,126,0
633,121,128,127,126,124,129,128,128,0
637,128,128,126,127,129,128,128,129,0
641,129,128,126,128,125,127,126,128,0
644,129,128,128,128,125,127,128,126,0
647,129,127,130,131,132,126,127,128,0
652,129,127,128,126,127,129,128,129,0
656,130,128,128,128,126,128,126,127,0
659,127,126,127,125,123,128,127,127,0
663,127,127,128,129,132,125,126,127,0
665,125,128,126,127,127,128,128,128,0
669,129,128,126,127,128,128,128,129,0
672,126,128,126,125,125,128,128,127,0
675,128,126,131,128,130,126,126,128,0
688,128,126,129,126,128,129,128,129,0
691,127,127,127,127,130,128,127,128,0
695,128,128,128,127,124,127,127,126,0
698,125,127,128,130,132,126,128,127,0
703,129,127,126,127,127,129,128,129,0
709,129,129,126,127,127,128,129,128,0
714,128,128,127,127,125,128,128,126,0
716,125,127,127,127,123,122,126,127,0
719,130,128,128,129,127,129,126,128,0
722,129,127,128,129,131,127,127,129,0
725,126,128,126,129,126,129,128,127,0
728,127,127,128,129,130,125,127,127,0
731,128,127,128,129,125,129,127,128,0
734,128,129,127,128,127,128,128,128,0
738,128,128,126,126,123,127,127,127,0
741,127,127,126,125,124,125,127,127,0
744,129,127,129,129,125,128,127,128,0
747,129,128,128,128,128,129,127,128,0
750,128,128,127,127,125,129,128,127,0
761,128,128,126,126,123,127,128,126,0
764,129,125,127,129,125,129,127,129,0
767,129,128,128,128,128,128,128,128,0
770,129,127,127,126,130,128,127,126,0
774,125,127,127,125,123,127,128,126,0
778,126,126,130,130,132,125,127,127,0
781,129,128,127,129,130,129,129,129,0
784,127,129,126,127,126,127,128,127,0
797,128,127,128,126,125,125,130,126,0
801,130,127,130,130,133,125,128,128,0
804,128,128,129,127,129,129,128,128,0
807,128,129,126,128,127,128,130,128,0
812,130,127,126,126,123,126,127,126,0
817,129,127,129,128,130,125,130,128,0
821,127,128,127,128,128,128,128,129,0
826,129,128,126,127,125,128,129,129,0
831,127,128,127,126,124,129,129,125,0
835,126,127,129,130,133,126,128,129,0
838,127,128,126,128,129,129,127,128,0
841,129,128,127,127,126,129,126,127,0
845,126,128,127,128,124,129,127,124,0
848,126,128,127,126,125,129,128,129,0
851,127,128,127,128,129,128,126,129,0
855,128,128,128,128,127,127,126,126,0
858,128,127,128,127,124,125,126,127,0
862,129,127,129,131,133,126,126,127,0
864,128,128,125,128,128,128,127,128,0
867,128,128,126,127,129,128,128,129,0
870,128,127,128,126,122,126,127,127,0
891,128,127,129,129,131,125,126,126,0
896,126,128,126,127,129,129,128,128,0
901,126,128,126,127,126,129,126,128,0
905,128,128,128,126,122,126,126,125,0
909,125,127,130,127,132,126,127,127,0
912,128,128,126,127,128,128,126,128,0
915,130,128,128,128,127,129,128,128,0
918,129,128,127,127,122,127,126,127,0
921,126,128,128,125,123,128,126,127,0
931,126,128,127,127,131,127,126,129,0
935,126,128,129,129,131,127,127,127,0
938,128,128,128,128,127,127,128,124,0
942,129,127,128,129,133,125,128,127,0
945,128,127,127,126,130,129,128,128,0
948,128,127,126,127,128,129,128,129,0
954,129,128,126,126,125,128,128,127,0
961,125,127,131,128,131,126,127,127,0
964,128,127,126,126,129,129,129,128,0
967,128,128,129,127,127,129,129,129,0
971,128,128,126,127,125,130,128,127,0
974,127,128,129,125,122,126,127,128,0
978,127,127,129,129,128,130,128,129,0
982,129,128,126,128,130,129,129,129,0
985,129,128,125,126,123,127,128,127,0
989,125,127,126,125,124,128,126,127,0
992,126,128,128,127,129,127,128,128,0
995,128,128,129,127,129,128,128,126,0
998,128,128,128,127,126,128,127,125,0
1001,127,127,128,129,132,126,128,128,0
1005,129,126,129,131,131,125,127,128,0
1008,130,128,127,127,127,129,128,129,0
1011,129,128,129,126,127,127,126,127,0
1015,127,125,127,125,124,128,128,125,0
1017,124,127,128,130,130,127,127,128,0
1020,128,128,127,127,130,128,127,128,0
1023,129,129,126,127,129,129,128,128,0
1026,124,128,127,127,123,127,129,127,0
1028,128,126,129,129,132,126,126,128,0
1035,128,128,128,126,129,129,128,128,0
1031,125,129,129,129,129,128,128,128,0
1043,125,128,127,128,128,125,127,127,0
1047,129,127,130,128,129,125,127,129,0
1050,129,128,126,126,127,129,128,128,0
1055,126,128,129,129,128,129,128,126,0
1058,124,128,126,127,125,128,129,126,0
1060,127,128,130,130,133,126,126,128,0
1065,128,128,127,127,127,128,127,129,0
1071,126,128,127,127,127,128,130,127,0
1078,124,127,126,125,124,129,128,124,0
1082,125,128,127,126,125,128,126,128,0
1085,128,129,125,127,131,128,128,128,0
1088,126,127,129,129,129,128,128,125,0
1091,127,127,128,127,123,125,128,127,0
1094,128,126,128,130,132,125,126,125,0
1098,129,128,127,127,128,129,129,129,0
1100,129,128,125,127,130,129,127,126,0
1103,125,127,126,127,124,128,128,123,0
1106,126,126,128,130,133,126,126,126,0
1109,124,128,129,128,129,128,127,129,0
1115,131,127,127,127,127,129,127,128,0
1118,128,128,129,125,125,129,127,125,0
1120,125,127,128,130,131,125,127,129,0
1124,127,128,126,127,126,128,127,128,0
1127,129,127,128,129,129,129,128,128,0
1148,127,128,126,125,125,128,127,127,0
1154,123,127,127,125,124,128,127,128,0
1160,128,128,129,128,127,128,126,129,0
1164,127,127,127,128,129,129,127,128,0
1169,128,128,128,130,132,125,127,128,0
1173,128,127,128,130,134,125,127,127,0
1176,125,127,127,128,126,128,128,128,0
1179,128,128,125,127,129,129,128,128,0
1189,127,128,127,125,126,129,128,128,0
1193,124,127,128,129,134,125,127,128,0
1196,128,127,129,128,125,128,128,129,0
1199,127,128,127,126,128,129,128,128,0
1204,128,128,126,126,121,127,127,127,0
1210,129,127,128,129,129,126,126,126,0
1214,127,127,126,128,127,129,129,129,0
1217,127,128,127,128,126,128,129,128,0
1220,127,128,127,125,126,129,132,123,0
1224,123,128,128,125,124,128,129,127,0
1236,127,128,125,127,128,128,129,128,0
1239,129,129,126,127,128,128,127,128,0
1243,129,128,126,126,125,127,129,128,0
1246,126,126,129,129,131,125,128,127,0
1249,129,127,129,130,125,128,129,129,0
1253,129,128,127,128,129,128,129,128,0
1256,128,129,127,126,127,129,129,128,0
1259,127,128,129,125,125,125,129,128,0
1263,129,127,129,130,124,129,129,129,0
1266,127,128,127,127,129,128,129,128,0
1269,127,128,127,128,128,128,129,126,0
1272,127,128,126,126,124,128,129,126,0
1275,126,127,127,128,124,128,128,128,0
1278,129,128,127,128,126,128,128,129,0
1282,130,127,126,127,126,129,127,125,0
1286,129,126,128,130,132,125,128,127,0
1289,129,126,129,130,132,125,128,128,0
1291,128,128,126,129,128,128,129,129,0
1294,127,128,126,128,127,128,129,128,0
1297,128,128,127,125,129,125,129,127,0
1300,129,127,128,129,130,125,129,128,0
1303,128,128,126,127,129,128,128,128,0
1306,129,128,127,127,125,129,127,127,0
1308,127,128,129,125,123,128,127,127,0
1311,124,128,126,125,126,129,129,129,0
1315,128,128,127,129,129,128,126,129,0
1320,129,128,128,128,125,128,126,126,0
1323,127,127,127,126,125,127,129,127,0
1326,129,127,130,130,132,125,127,127,0
1328,126,128,126,126,130,128,127,128,0
1331,126,128,128,127,130,128,127,127,0
1334,128,127,126,126,126,128,128,126,0
1338,128,126,131,130,132,125,127,127,0
1341,124,128,126,126,128,128,127,128,0
1343,128,128,127,128,129,129,127,128,0
1346,128,128,126,126,123,129,126,126,0
1349,124,126,127,125,125,129,125,127,0
1352,124,128,126,129,130,128,127,128,0
1371,129,128,128,129,128,127,125,127,0
1378,126,127,126,129,129,125,127,127,0
1383,129,126,131,130,133,125,126,128,0
1387,126,128,125,127,127,128,127,129,0
1392,128,127,128,128,126,129,125,127,0
1395,128,128,127,127,123,127,126,126,0
1398,126,128,128,125,126,129,127,128,0
1403,128,128,128,129,128,129,127,128,0
1407,128,127,128,128,128,128,126,127,0
1410,127,128,127,127,126,129,127,124,0
1413,126,127,128,129,134,126,126,128,0
1417,131,127,128,129,130,128,126,129,0
1420,127,127,127,128,127,129,127,128,0
1423,130,127,128,126,123,127,127,127,0
1426,126,126,126,130,134,125,128,128,0
1430,129,127,128,128,126,129,127,129,0
1433,129,128,127,127,131,129,128,128,0
1437,126,128,126,126,124,127,126,128,0
1442,129,128,128,125,123,128,128,128,0
1448,127,128,126,127,126,129,126,129,0
1452,128,128,128,129,130,129,128,129,0
1456,126,128,126,126,126,128,127,128,0
1459,127,126,131,130,136,125,126,127,0
1462,129,127,129,128,128,127,127,128,0
1465,127,128,126,128,128,128,127,128,0
1468,126,127,127,128,127,130,127,126,0
1472,124,127,127,125,124,128,126,127,0
1482,127,128,128,127,129,128,129,129,0
1486,126,127,128,129,128,128,129,129,0
1491,129,128,128,128,127,128,127,125,0
1495,126,127,127,125,128,125,129,127,0
1498,129,127,128,131,131,125,129,129,0
1506,128,129,126,128,130,128,128,129,0
1510,130,128,127,126,123,127,128,127,0
1513,125,127,126,129,131,126,127,127,0
1517,130,127,130,129,130,125,129,129,0
1523,129,129,126,128,128,129,128,128,0
1535,129,128,129,124,123,128,128,124,0
1528,129,128,126,127,125,129,126,126,0
1538,126,128,127,125,126,130,128,129,0
1547,127,128,128,129,129,128,129,128,0
1550,127,127,127,127,129,128,128,127,0
1557,124,128,127,125,124,127,127,127,0
1562,129,126,129,130,132,125,126,129,0
1566,129,128,126,127,128,129,126,129,0
1570,127,128,130,129,128,129,128,128,0
1574,122,128,128,128,129,125,128,127,0
1579,129,127,128,131,131,125,126,129,0
1584,129,128,129,127,127,128,128,128,0
1587,128,128,126,127,128,129,128,128,0
1591,128,127,126,126,126,124,127,126,0
1594,126,127,128,128,129,126,127,129,0
1598,128,129,127,127,128,128,128,128,0
1601,128,128,127,127,130,129,129,127,0
1604,124,127,127,126,127,124,127,127,0
1607,129,127,130,130,134,126,126,125,0
1611,128,128,129,128,128,128,129,128,0
1615,128,128,127,127,125,128,128,129,0
1618,127,128,127,126,122,127,126,125,0
1621,126,128,129,125,124,128,127,128,0
1624,128,128,129,129,130,128,128,128,0
1626,129,127,128,129,130,128,128,127,0
1629,127,127,128,127,126,126,128,125,0
1631,127,125,130,130,131,125,127,128,0
1637,127,128,126,127,129,128,128,128,0
1642,128,128,128,128,125,128,128,128,0
1645,127,128,126,128,126,128,127,127,0
1648,129,127,129,130,130,125,128,128,0
1650,128,127,129,128,125,129,128,129,0
1654,128,128,127,127,127,129,127,128,0
1658,129,128,130,125,127,128,129,125,0
1662,126,127,127,124,125,129,127,129,0
1665,130,128,128,127,129,128,127,128,0
1668,129,128,129,128,128,128,128,128,0
1671,124,128,126,127,126,129,127,126,0
1678,126,127,128,129,131,125,128,128,0
1683,129,127,130,130,125,129,127,129,0
1688,128,128,127,127,127,128,128,128,0
1693,128,128,127,126,127,128,127,125,0
1696,127,125,128,130,133,125,128,127,0
1700,129,127,128,126,128,129,128,128,0
1703,126,128,127,127,131,129,129,128,0
1706,127,127,126,126,126,129,128,128,0
1715,127,127,127,125,124,128,127,127,0
1719,127,128,126,128,127,128,129,129,0
1722,128,129,127,128,127,127,127,128,0
1726,130,127,129,127,126,129,127,125,0
1729,124,127,130,130,136,125,130,128,0
1732,128,127,129,130,128,128,127,128,0
1736,130,128,126,128,127,128,128,128,0
1743,130,128,126,126,126,129,128,126,0
1746,126,127,128,129,126,126,128,128,0
1750,128,127,129,127,128,129,128,129,0
1753,128,129,127,128,127,128,127,128,0
1758,130,128,128,128,129,129,128,124,0
1762,128,127,127,125,123,128,126,125,0
1765,125,128,126,125,126,129,128,128,0
1768,129,128,129,128,131,128,128,128,0
1772,127,127,128,127,129,127,127,126,0
1776,124,127,128,130,134,125,128,127,0
1779,127,127,128,129,130,125,128,129,0
1782,127,129,128,127,128,128,128,129,0
1786,128,127,128,127,129,129,128,127,0
1788,125,128,128,126,123,128,128,125,0
1795,126,128,126,125,127,129,127,128,0
1798,126,128,127,129,130,128,128,128,0
1802,128,128,126,128,128,128,128,128,0
1808,127,127,128,127,125,127,127,127,0
1811,130,126,129,130,135,125,126,126,0
1816,130,128,127,127,127,128,129,129,0
1819,128,129,126,127,126,128,127,128,0
1822,128,127,126,126,125,128,128,124,0
1831,127,127,128,130,133,126,127,125,0
1835,127,128,126,126,128,128,127,129,0
1838,130,127,128,127,125,128,126,127,0
1847,127,127,129,128,126,127,129,124,0
1851,122,127,129,126,125,129,128,127,0
1856,126,128,126,130,129,129,129,129,0
1859,129,128,126,128,128,128,127,126,0
1863,127,127,128,130,133,125,128,126,0
1868,127,127,131,130,133,126,127,127,0
1872,124,128,126,127,129,128,128,128,0
1876,126,128,127,127,126,128,127,129,0
1879,129,128,130,127,123,127,126,127,0
1882,126,127,129,127,124,129,128,128,0
1885,128,128,127,127,127,128,128,129,0
1889,128,128,127,128,127,128,127,128,0
1892,126,127,127,126,127,126,127,125,0
1895,126,126,130,129,134,126,128,127,0
1898,129,127,127,128,127,129,128,129,0
1902,128,127,127,128,128,128,128,128,0
1907,129,128,127,126,124,129,128,127,0
1910,125,128,129,130,134,125,127,128,0
1914,128,127,127,127,126,129,128,128,0
1917,128,128,127,127,132,129,129,128,0
1923,128,128,127,127,124,126,127,127,0
1927,127,126,129,130,132,125,128,127,0
1930,128,127,127,127,125,128,127,128,0
1934,128,128,126,127,129,128,128,128,0
1942,127,128,126,127,127,129,129,126,0
1945,125,127,126,124,123,126,128,127,0
1949,127,128,128,127,129,129,129,129,0
1952,126,128,127,127,128,129,126,128,0
1955,128,128,128,127,125,128,127,126,0
1959,122,127,128,130,134,125,126,127,0
1962,130,127,130,130,128,129,128,129,0
1965,130,128,127,127,126,129,129,128,0
1968,127,128,127,126,127,128,128,128,0
1972,128,127,129,129,130,126,127,127,0
1975,130,127,129,130,124,129,128,129,0
1978,128,128,126,128,129,128,128,129,0
1982,129,128,127,127,125,128,127,128,0
1985,130,127,128,129,128,125,128,127,0
1988,128,127,128,130,128,129,128,129,0
1992,126,128,127,127,128,128,128,129,0
1995,129,127,128,126,128,129,127,127,0
1998,127,128,129,125,125,129,127,125,0
2002,125,128,126,126,125,128,127,129,0
2014,129,128,128,129,126,128,127,128,0
2019,128,128,127,128,126,129,127,125,0
2024,125,127,129,128,124,127,127,127,0
2027,129,127,130,131,131,125,125,129,0
2031,128,129,127,127,127,128,128,129,0
2034,129,129,126,127,126,127,127,128,0
2037,123,128,126,126,125,124,127,127,0
2043,128,127,128,128,132,125,126,128,0
2050,129,129,126,129,130,129,128,128,0
2053,128,128,127,128,126,128,128,127,0
2057,125,127,126,125,125,129,128,126,0
2060,128,126,130,130,133,126,125,127,0
2063,128,127,126,126,129,128,128,128,0
2066,127,127,128,126,128,128,127,126,0
2069,126,127,127,128,126,125,127,127,0
2073,128,127,130,129,126,126,127,129,0
2076,129,128,127,127,127,129,128,128,0
2078,128,129,127,127,127,129,128,129,0
2087,127,128,128,126,122,126,126,127,0
2090,125,128,127,130,133,126,126,125,0
2093,129,128,126,127,128,128,127,128,0
2096,126,127,128,128,126,128,127,127,0
2099,128,127,130,126,124,125,126,127,0
2103,125,127,128,129,127,126,127,126,0
2107,124,129,127,126,128,129,127,128,0
2110,127,128,125,128,127,129,128,128,0
2122,129,127,129,126,124,128,127,127,0
2126,126,126,132,130,132,126,126,127,0
2131,126,128,129,127,127,128,128,129,0
2135,128,128,127,128,129,128,129,129,0
2138,128,129,126,126,124,129,128,128,0
2141,122,127,129,129,129,125,128,127,0
2145,127,127,127,127,127,130,127,129,0
2150,129,128,127,128,129,128,128,128,0
2172,127,128,126,126,127,129,129,128,0
2180,126,127,127,126,123,127,127,127,0
2193,128,128,127,127,127,129,127,129,0
2199,128,128,129,128,127,129,127,127,0
2205,128,127,129,128,126,127,127,126,0
2212,126,126,129,130,133,125,126,128,0
2215,128,126,129,130,125,129,128,128,0
2219,129,128,128,128,128,130,128,128,0
2225,129,128,127,127,125,129,127,127,0
2229,130,127,130,129,131,125,127,127,0
2232,129,126,128,128,128,130,129,129,0
2236,129,128,127,126,129,128,127,128,0
2239,128,128,127,127,127,128,129,127,0
2242,125,127,127,126,123,125,126,127,0
2246,127,127,128,129,125,130,127,128,0
2249,129,128,128,127,129,129,128,128,0
2255,127,128,127,128,127,130,127,128,0
2258,123,128,126,124,126,125,126,128,0
2261,128,126,129,129,125,129,128,129,0
2265,129,128,126,127,130,128,129,129,0
2268,128,128,126,126,127,128,128,127,0
2271,129,127,127,128,123,125,127,128,0
2275,129,127,128,129,127,129,128,129,0
2278,129,129,127,127,128,129,129,129,0
2282,128,128,126,126,127,129,128,128,0
2285,128,128,129,125,123,125,127,128,0
2288,126,128,126,126,127,128,129,128,0
2292,127,128,128,129,129,129,127,128,0
2296,128,128,127,128,129,128,128,128,0
2299,125,127,129,129,132,126,127,126,0
2302,130,127,129,130,131,125,129,128,0
2305,127,128,125,127,125,129,129,128,0
2308,127,128,127,126,129,129,128,128,0
2312,127,128,126,125,124,127,128,123,0
2316,125,126,130,130,130,125,126,128,0
2321,129,129,127,127,126,128,129,129,0
2326,129,129,126,127,127,129,128,127,0
2329,128,128,126,127,124,128,127,126,0
2332,125,128,127,126,125,129,127,128,0
2337,129,128,129,128,128,129,127,127,0
2341,128,127,128,128,128,128,127,128,0
2344,128,128,129,130,131,126,127,127,0
2347,128,127,128,131,133,126,127,127,0
2350,124,128,128,127,127,128,129,129,0
2353,128,128,125,127,129,129,127,128,0
2356,124,127,126,127,126,128,126,126,0
2359,130,126,129,129,131,126,127,126,0
2363,124,128,126,126,128,128,128,129,0
2366,129,128,127,127,126,129,127,128,0
2369,129,128,129,128,124,129,127,125,0
2374,125,128,129,125,124,129,126,127,0
2377,126,128,128,128,127,129,126,129,0
2380,128,127,127,127,129,128,128,128,0
2383,126,129,126,126,124,126,127,127,0
2386,126,127,128,129,130,125,127,128,0
2390,128,127,128,127,126,128,127,128,0
2393,131,128,128,128,127,129,127,127,0
2396,129,127,129,126,124,128,126,125,0
2399,122,126,127,125,124,128,128,128,0
2401,131,127,125,128,128,129,129,129,0
2404,128,128,127,128,126,129,127,127,0
2407,126,127,130,127,125,126,127,127,0
2412,126,128,130,130,138,125,131,127,0
2416,128,127,128,127,127,129,127,128,0
2420,129,128,128,127,128,128,127,129,0
2424,129,128,127,126,122,127,128,128,0
2427,126,127,128,125,122,126,127,127,0
2431,129,127,129,129,129,129,128,129,0
2434,127,128,128,128,128,129,128,129,0
2437,129,128,127,127,127,129,126,127,0
2441,130,128,128,126,124,125,127,127,0
2447,130,127,130,130,126,129,128,129,0
2453,129,128,126,129,127,129,128,129,0
2458,128,127,127,126,127,128,128,128,0
2461,123,128,127,126,124,127,128,126,0
2464,127,127,130,130,129,127,128,128,0
2468,128,128,127,127,127,128,127,129,0
2471,127,128,127,127,130,127,128,126,0
2474,125,127,127,127,129,125,128,127,0
2478,129,127,128,130,132,125,129,128,0
2481,127,128,127,128,130,128,128,129,0
2484,129,128,126,127,126,130,128,128,0
2487,127,127,127,128,124,129,127,124,0
2491,124,128,127,127,125,128,128,128,0
2495,128,128,126,129,130,129,128,129,0
2506,126,128,127,128,128,129,128,127,0
2511,128,128,128,127,122,126,128,126,0
2515,129,127,130,130,132,125,126,128,0
2519,127,129,127,129,129,128,127,129,0
2523,127,128,126,128,128,128,128,128,0
2526,125,127,129,125,123,125,127,127,0
2582,130,127,129,130,132,126,125,129,0
2593,128,128,128,128,127,128,127,129,0
2608,130,128,127,127,126,128,126,126,0
2614,126,126,130,126,125,128,128,125,0
2621,125,127,131,130,132,126,125,125,0
2650,129,129,127,128,128,129,127,129,0
2656,130,127,128,128,126,128,126,127,0
2664,126,127,126,128,123,129,128,125,0
2671,125,128,128,125,125,129,126,128,0
2676,129,128,127,128,129,129,126,129,0
2681,127,128,129,127,126,127,126,126,0
2719,128,127,128,128,125,127,128,127,0
2728,128,127,128,129,132,125,128,127,0
2734,127,128,126,127,128,129,128,128,0
2739,128,128,126,127,129,129,129,128,0
2745,124,127,126,128,125,130,128,125,0
2788,129,126,128,130,133,125,127,128,0
2794,127,128,126,128,128,129,127,129,0
2802,130,128,128,129,126,128,127,128,0
2807,128,128,128,127,125,128,129,127,0
2811,125,127,127,125,125,129,128,128,0
2815,127,128,126,127,128,128,129,129,0
2818,128,127,126,129,130,128,128,128,0
2822,125,127,126,127,125,128,128,127,0
2825,124,127,129,131,133,125,128,127,0
2828,129,127,127,129,129,129,127,128,0
2832,130,127,128,127,130,129,127,128,0
2835,128,127,126,125,128,124,128,127,0
2838,126,127,127,125,123,126,127,127,0
2841,126,128,127,128,130,129,129,130,0
2845,127,128,126,128,128,127,128,129,0
2852,129,128,127,127,126,128,127,126,0
2856,123,127,130,132,133,125,129,128,0
2860,130,127,128,127,126,129,127,129,0
2866,128,128,126,127,130,129,127,127,0
2870,127,128,127,126,126,129,127,126,0
2874,128,128,128,129,132,126,129,128,0
2918,127,126,129,128,130,129,128,129,0
2929,129,128,126,126,128,128,128,128,0
2937,127,127,126,126,129,128,128,127,0
2945,123,128,128,125,124,128,128,126,0
2952,126,127,127,127,126,129,127,129,0
2985,129,129,128,127,126,128,128,128,0
2993,128,128,127,126,126,130,128,127,0
3002,125,127,127,125,124,128,128,127,0
3055,125,127,126,128,128,127,127,129,0
3066,128,128,126,128,130,128,129,128,0
3092,127,127,127,127,126,127,128,124,0
3102,127,126,131,130,131,125,127,127,0
3110,129,127,129,130,131,125,128,129,0
3115,129,128,128,128,126,127,128,128,0
3119,129,128,127,126,127,129,128,128,0
3124,131,126,127,125,124,127,127,126,0
3128,128,127,129,130,129,125,127,129,0
3131,130,128,127,127,129,129,128,128,0
3134,130,128,128,127,125,129,128,127,0
3137,127,127,126,125,124,124,127,127,0
3141,129,127,128,130,132,126,127,129,0
3144,128,128,126,126,129,128,127,128,0
3147,130,128,127,128,126,128,126,127,0
3154,126,128,128,126,123,128,128,125,0
3158,129,127,131,130,131,125,127,128,0
3161,129,128,128,128,130,129,127,129,0
3165,127,128,126,127,127,128,128,128,0
3168,128,128,127,126,125,129,128,127,0
3172,126,127,131,129,132,125,125,126,0
3175,128,128,127,128,127,128,128,128,0
3178,128,128,127,129,127,129,127,128,0
3181,127,125,128,128,124,127,127,123,0
3185,125,127,128,127,123,127,126,128,0
3188,129,128,128,128,128,129,127,129,0
3191,129,128,128,129,129,129,129,127,0
3195,124,128,126,126,127,127,127,127,0
3198,129,126,128,129,133,125,127,127,0
3202,125,129,129,128,129,129,129,129,0
3205,131,129,126,128,128,128,129,129,0
3208,128,127,127,126,123,128,126,126,0
3211,126,127,127,125,125,128,128,125,0
3216,128,128,127,127,127,128,127,128,0
3218,130,128,128,129,129,128,127,128,0
3221,125,127,127,126,125,125,128,126,0
3224,128,126,129,130,132,126,127,128,0
3226,129,127,128,126,128,129,129,129,0
3230,128,128,126,126,129,129,128,128,0
3232,126,127,127,126,127,125,128,128,0
3235,127,127,129,131,132,125,128,128,0
3238,129,127,126,128,129,129,129,129,0
3240,128,129,126,127,126,128,128,128,0
3243,128,128,126,126,125,128,129,127,0
3246,126,127,128,129,130,126,126,127,0
3248,129,127,127,127,125,128,127,129,0
3252,127,128,126,128,129,129,129,128,0
3255,127,128,126,126,122,127,127,125,0
3260,125,127,126,128,132,125,127,127,0
3266,128,127,127,127,126,129,129,128,0
3270,127,128,127,126,128,129,127,128,0
3275,128,127,127,126,125,129,127,127,0
3278,129,126,129,129,127,126,127,127,0
3281,130,127,128,127,127,129,128,129,0
3285,128,128,127,127,126,128,127,128,0
3288,128,128,126,126,128,129,128,127,0
3292,123,128,128,127,128,126,127,127,0
3295,127,127,128,128,129,129,129,129,0
3298,126,128,127,127,129,128,127,128,0
3322,129,127,128,126,126,129,126,125,0
3327,125,127,127,125,124,128,128,127,0
3331,125,128,127,129,128,128,128,128,0
3335,127,128,126,127,128,128,129,128,0
3338,127,127,126,127,125,128,126,127,0
3393,126,127,130,130,132,125,127,127,0
3403,129,127,129,130,132,125,126,128,0
3422,130,128,126,129,129,129,130,129,0
3430,127,128,127,126,128,129,129,126,0
3437,128,127,126,126,124,125,128,127,0
3442,129,127,129,130,133,126,127,128,0
3447,128,129,127,128,128,129,127,128,0
3452,129,128,128,127,128,130,128,125,0
3455,126,127,128,129,126,125,126,126,0
3459,129,126,129,129,127,127,127,128,0
3462,129,128,129,128,128,128,127,129,0
3466,129,128,129,127,127,128,127,127,0
3469,128,128,127,127,125,128,127,125,0
3473,124,128,128,126,125,129,128,127,0
3478,125,128,129,129,131,128,127,128,0
3483,127,127,126,128,129,128,129,127,0
3487,125,128,127,126,125,128,127,126,0
3491,128,127,130,132,132,126,127,127,0
3494,125,128,128,128,129,129,128,129,0
3498,128,127,127,129,129,129,129,128,0
3501,127,127,127,125,123,128,127,126,0
3504,128,126,129,130,132,126,127,127,0
3507,124,128,127,126,128,129,127,128,0
3511,129,128,127,127,125,129,128,128,0
3514,128,127,128,127,124,125,127,126,0
3518,129,127,131,130,131,126,126,125,0
3521,128,129,125,128,127,128,128,128,0
3525,128,128,127,127,127,129,129,128,0
3528,128,128,127,126,123,127,127,126,0
3531,125,126,129,129,129,125,127,127,0
3535,124,128,127,129,130,128,127,128,0
3538,129,128,128,127,126,129,128,129,0
3541,129,128,129,127,125,129,126,125,0
3545,123,127,128,129,131,126,127,129,0
3548,128,127,127,128,127,128,127,129,0
3551,127,128,128,127,126,128,127,128,0
3555,129,128,129,126,123,128,126,127,0
3559,126,127,128,125,123,128,128,127,0
3562,128,128,126,128,127,128,127,128,0
3565,129,127,128,129,130,128,128,128,0
3569,128,128,126,127,126,127,127,126,0
3574,123,127,131,129,134,125,127,128,0
3576,129,127,129,131,132,124,130,129,0
3579,128,128,127,127,130,129,129,128,0
3582,127,128,125,125,126,128,127,124,0
3587,125,126,128,128,131,126,128,127,0
3592,129,127,126,128,127,129,129,129,0
3595,130,128,128,127,128,129,127,128,0
3598,129,128,127,125,125,130,128,128,0
3601,127,128,127,127,121,128,127,128,0
3608,129,128,128,129,128,128,127,128,0
3604,127,128,126,127,127,128,128,129,0
3611,126,128,125,128,129,124,126,127,0
3615,128,126,129,130,130,126,127,128,0
3618,127,127,129,128,127,129,129,129,0
3621,128,128,126,129,128,129,128,129,0
3625,129,128,130,126,126,127,126,125,0
3628,125,125,127,127,121,127,128,127,0
3632,125,128,126,125,129,129,129,129,0
3637,127,129,126,129,129,128,127,128,0
3640,128,127,127,128,126,128,129,128,0
3643,128,127,128,126,130,125,127,126,0
3647,128,126,128,130,131,125,129,129,0
3650,128,128,126,127,127,127,126,128,0
3653,131,129,128,127,126,127,126,127,0
3655,128,125,128,129,130,125,127,127,0
3658,129,127,129,130,129,125,127,129,0
3661,129,128,127,127,127,128,128,128,0
3665,128,128,127,127,126,129,128,128,0
3668,128,128,127,125,124,128,128,126,0
3672,126,128,127,127,124,128,125,127,0
3675,129,128,129,129,131,128,127,128,0
3677,127,127,126,128,128,129,128,128,0
3680,128,126,128,126,124,127,127,126,0
3684,128,127,129,130,133,125,126,127,0
3687,129,128,126,127,127,128,129,129,0
3693,129,128,127,127,125,128,128,128,0
3698,128,128,130,127,123,128,127,126,0
3701,125,127,130,131,133,126,126,128,0
3705,124,128,125,128,129,128,128,128,0
3708,127,128,128,127,128,129,128,127,0
3717,127,127,128,126,125,128,126,125,0
3721,125,128,129,129,132,125,126,127,0
3724,127,128,128,127,129,129,129,129,0
3729,130,128,128,127,127,130,126,128,0
3732,127,127,130,130,128,126,127,126,0
3735,126,128,128,128,127,126,126,124,0
3738,128,128,127,127,126,128,128,128,0
3744,128,128,128,127,130,129,129,127,0
3747,127,127,126,128,126,128,128,123,0
3751,124,127,127,125,124,128,127,127,0
3754,128,128,127,128,129,128,129,129,0
3757,129,129,126,128,129,128,127,128,0
3760,128,127,127,127,124,128,127,124,0
3764,129,126,128,129,132,126,128,128,0
3767,129,127,127,129,127,130,127,129,0
3771,129,128,126,128,128,129,127,128,0
3774,128,128,127,128,123,127,126,127,0
3777,126,127,127,126,124,127,126,126,0
3781,128,129,125,128,127,128,128,129,0
3785,128,129,127,128,130,128,127,128,0
3788,128,128,126,129,128,125,127,127,0
3791,131,127,131,130,133,125,127,128,0
3795,129,127,127,126,124,129,128,129,0
3798,130,128,128,128,127,128,128,128,0
3801,130,128,130,128,127,127,128,125,0
3804,126,127,127,125,123,127,127,126,0
3808,128,128,128,128,126,128,127,129,0
3814,130,128,127,128,130,128,128,129,0
3817,128,128,125,126,126,124,127,127,0
3820,127,127,130,131,137,125,129,128,0
3823,127,127,129,130,126,129,128,129,0
3825,129,128,129,127,128,128,128,128,0
3828,130,128,130,128,128,128,128,128,0
3831,124,127,127,129,131,126,128,127,0
3834,128,127,129,128,126,129,128,129,0
3837,128,128,127,128,129,129,128,128,0
3840,127,128,126,126,126,129,129,128,0
3842,129,127,127,128,128,125,127,127,0
3845,127,127,130,129,124,130,129,128,0
3848,127,128,127,126,128,128,127,128,0
3851,129,128,126,126,125,129,127,127,0
3854,127,127,127,125,124,127,128,126,0
3857,125,128,128,128,125,129,128,128,0
3860,129,128,128,129,128,127,126,128,0
3864,128,128,128,127,128,128,128,128,0
3866,128,128,129,130,129,125,127,126,0
3870,128,127,130,129,132,124,126,129,0
3874,127,128,126,127,128,128,128,128,0
3877,129,128,128,128,127,129,127,125,0
3880,125,128,126,128,124,128,127,126,0
3883,122,127,127,126,126,129,128,128,0
3886,128,129,126,128,128,128,128,128,0
3889,127,128,128,127,127,128,128,124,0
3894,127,127,128,126,128,125,128,127,0
3897,129,126,130,129,132,125,125,125,0
3900,127,128,126,128,129,129,129,129,0
3903,128,127,126,127,129,127,127,126,0
3908,126,127,129,125,124,128,127,123,0
3914,125,127,128,126,123,127,127,128,0
3918,129,128,128,129,130,128,128,128,0
3921,128,127,128,128,129,128,127,128,0
3928,128,128,127,125,125,129,129,127,0
3931,128,126,130,130,133,125,125,126,0
3934,123,128,128,126,128,129,126,128,0
3936,129,128,126,128,126,128,128,128,0
3939,129,128,129,126,123,128,126,124,0
3942,126,128,129,129,133,126,127,127,0
3945,128,126,129,128,130,129,129,128,0
3948,128,128,126,126,129,129,128,128,0
3951,128,127,127,125,125,129,128,125,0
3954,124,127,131,130,132,125,128,127,0
3957,128,127,128,128,127,128,128,129,0
3961,129,128,126,128,128,129,128,129,0
3965,129,127,130,125,125,126,126,127,0
3968,126,128,127,126,125,129,129,128,0
3972,127,128,128,128,129,128,128,129,0
3976,128,128,128,128,128,128,127,128,0
3979,128,127,127,127,125,128,126,127,0
3981,124,126,131,130,135,124,127,128,0
3985,128,127,129,128,128,129,129,128,0
3988,130,128,127,127,126,128,126,127,0
3991,128,127,128,128,127,124,126,126,0
3995,124,126,130,128,131,126,127,127,0
3999,130,127,127,125,128,129,128,129,0
4002,128,128,127,128,128,129,127,128,0
4005,127,128,127,125,126,129,127,127,0
4009,129,127,128,125,122,127,127,127,0
4020,127,128,129,129,128,129,127,129,0
4025,128,128,128,128,127,128,126,128,0
4031,128,127,128,128,127,128,127,127,0
4035,123,127,128,129,132,125,127,128,0
4038,128,127,129,130,125,129,128,129,0
4041,128,128,127,128,127,128,128,128,0
4045,129,128,127,126,127,127,128,125,0
4048,125,128,126,125,124,128,128,127,0
4052,127,127,127,128,128,128,129,129,0
4055,128,128,126,128,129,127,128,129,0
4057,127,127,128,128,126,128,126,125,0
4060,128,127,127,127,129,126,127,128,0
4063,130,126,129,131,132,125,127,128,0
4066,129,128,128,128,127,129,129,129,0
4069,131,128,127,126,124,127,128,128,0
4072,127,127,127,129,133,126,128,127,0
4074,129,126,130,129,128,128,127,128,0
4077,128,128,126,127,129,129,127,128,0
4079,129,127,129,128,129,129,129,127,0
4082,126,127,129,127,125,128,127,124,0
4085,126,128,127,126,127,128,127,128,0
4087,128,128,127,128,128,129,126,129,0
4090,128,128,128,129,127,127,126,126,0
4095,128,127,129,131,133,125,126,127,0
4092,125,127,127,126,126,124,128,127,0
4098,128,128,126,126,128,128,128,128,0
4102,128,128,126,126,126,129,128,128,0
4105,128,128,127,126,123,127,127,127,0
4108,128,127,128,131,134,125,126,126,0
4111,126,128,127,128,127,128,130,128,0
4115,128,128,127,129,127,129,127,127,0
4119,126,127,129,129,125,128,127,124,0
4123,127,127,126,125,125,129,128,128,0
4128,128,128,126,128,127,128,127,128,0
4133,128,128,129,129,128,127,128,127,0
4137,125,127,125,129,130,125,128,127,0
4139,129,127,129,129,131,126,126,124,0
4142,128,129,127,127,126,129,129,129,0
4145,130,128,127,128,125,129,127,128,0
4147,128,128,128,125,124,128,126,126,0
4150,128,127,131,130,131,125,127,127,0
4154,123,129,128,129,127,128,129,129,0
4157,128,128,126,126,128,128,129,128,0
4160,127,128,126,125,124,128,128,128,0
4165,124,128,128,129,126,125,127,126,0
4168,124,128,130,127,129,129,127,129,0
4172,127,128,127,128,128,129,127,128,0
4175,127,127,126,126,127,128,128,124,0
4177,126,127,127,125,125,129,128,128,0
4181,123,128,127,128,129,129,129,129,0
4185,128,128,126,128,129,127,128,129,0
4188,130,127,127,129,128,125,127,126,0
4192,128,126,129,131,133,126,127,128,0
4196,128,126,129,128,128,129,129,128,0
4199,128,128,128,128,126,129,128,128,0
4203,129,128,128,127,123,129,126,126,0
4206,127,128,127,127,129,125,127,127,0
4210,129,127,128,127,125,129,129,128,0
4213,130,128,127,128,129,129,129,128,0
4217,129,128,127,126,126,129,128,128,0
4219,128,128,126,125,124,128,127,128,0
4224,127,128,127,127,129,128,129,129,0
4228,127,129,126,128,127,127,128,129,0
4233,127,128,126,126,124,127,128,127,0
4237,126,127,130,129,130,125,126,127,0
4241,129,127,129,130,128,129,127,128,0
4244,129,128,127,128,129,128,129,129,0
4248,126,128,126,127,125,127,129,127,0
4251,127,128,127,125,124,128,127,127,0
4253,126,127,127,127,127,129,127,128,0
4256,127,128,128,128,128,129,128,128,0
4259,130,129,126,128,125,127,127,125,0
4261,128,127,129,129,133,126,128,127,0
4264,128,127,130,130,130,125,127,128,0
4266,129,128,128,127,131,129,128,128,0
4269,128,128,127,127,129,129,128,128,0
4272,127,127,127,124,124,128,128,125,0
4276,129,126,129,130,131,125,128,129,0
4279,127,128,126,128,129,129,128,128,0
4285,131,128,128,124,125,128,128,126,0
4282,128,128,126,127,126,128,127,128,0
4288,129,127,129,128,134,126,126,129,0
4294,129,128,126,128,127,128,128,129,0
4297,127,128,126,127,126,129,126,127,0
4299,128,128,128,127,129,125,127,126,0
4302,126,127,129,128,133,126,127,130,0
4305,127,128,125,128,130,128,129,129,0
4309,129,127,127,126,127,129,129,128,0
4313,125,127,127,127,126,126,127,124,0
4320,124,128,127,125,124,127,127,128,0
4324,128,128,127,129,129,128,129,129,0
4329,127,128,126,129,127,128,128,127,0
4332,126,126,128,127,126,128,129,127,0
4338,127,127,129,131,133,126,127,127,0
4342,127,128,128,127,127,128,129,128,0
4347,129,128,128,129,127,128,126,128,0
4351,127,128,130,127,124,125,128,126,0
4356,129,127,131,130,129,126,126,127,0
4360,124,128,126,126,130,128,128,129,0
4363,128,127,127,126,125,128,127,129,0
4366,129,128,129,127,123,129,126,127,0
4369,125,127,129,129,130,125,127,127,0
4372,124,129,129,126,129,129,128,128,0
4375,129,128,128,127,128,128,128,128,0
4378,128,128,127,126,122,127,126,126,0
4381,125,128,129,130,131,125,127,127,0
4385,127,127,127,127,127,129,128,129,0
4388,127,128,127,128,127,129,127,128,0
4393,128,127,128,126,126,129,127,126,0
4397,126,127,127,129,126,125,126,127,0
4401,127,127,126,126,127,130,128,129,0
4404,129,128,128,128,128,128,126,128,0
4407,127,128,127,126,127,128,129,127,0
4411,124,127,128,127,123,125,126,127,0
4414,128,128,126,129,129,129,128,128,0
4417,127,128,127,129,130,129,128,129,0
4419,126,128,128,128,127,126,126,127,0
4422,126,126,130,131,135,125,129,128,0
4425,129,127,129,127,128,128,129,129,0
4427,130,128,126,127,128,128,129,129,0
4430,128,128,127,126,123,127,126,127,0
4433,127,128,127,127,123,127,128,128,0
4435,126,128,126,127,126,128,127,127,0
4439,128,128,128,128,128,128,126,128,0
4442,127,128,127,127,127,128,127,127,0
4445,128,126,130,130,130,126,126,126,0
4452,128,127,129,125,128,129,128,129,0
4458,129,128,126,129,127,129,127,128,0
4462,129,127,127,128,127,129,127,126,0
4466,128,127,127,125,125,128,130,126,0
4469,126,126,129,130,129,128,127,128,0
4472,128,127,126,127,128,129,127,129,0
4475,127,128,127,126,128,128,128,126,0
4478,123,128,127,127,127,125,127,127,0
4482,129,127,129,130,128,128,127,128,0
4485,129,128,126,126,130,128,127,128,0
4488,129,128,128,128,126,129,127,128,0
4492,127,127,126,125,125,128,128,127,0
4495,128,127,129,129,129,125,127,129,0
4498,130,128,127,128,128,128,128,128,0
4501,128,127,127,127,128,129,127,125,0
4505,125,127,128,125,124,127,127,126,0
4508,125,127,129,128,123,128,126,128,0
4513,129,128,128,129,129,128,128,128,0
4516,129,129,127,128,127,128,128,128,0
4519,127,126,127,126,127,125,128,127,0
4522,127,127,130,130,132,125,127,128,0
4525,124,128,128,128,127,128,129,128,0
4528,128,129,126,126,129,129,129,128,0
4531,123,127,127,125,125,129,128,125,0
4535,123,127,129,129,129,125,127,125,0
4540,126,129,125,128,128,129,128,130,0
4544,129,128,128,127,127,129,126,128,0
4547,127,127,126,128,127,125,127,126,0
4550,121,128,127,126,126,129,127,128,0
4552,127,128,126,129,131,128,129,130,0
4555,129,128,125,128,127,128,127,129,0
4559,124,128,127,126,126,128,128,124,0
4564,129,127,130,131,136,125,126,128,0
4569,129,127,126,129,129,129,127,128,0
4573,129,128,128,129,127,129,127,127,0
4576,126,127,126,125,125,129,128,127,0
4578,125,126,129,130,132,126,126,127,0
4581,128,127,128,127,128,129,127,129,0
4584,129,128,127,127,129,129,128,129,0
4586,128,128,127,126,127,128,127,127,0
4589,126,128,127,125,124,127,127,128,0
4592,127,127,126,127,130,128,129,129,0
4595,127,128,127,129,128,129,128,128,0
4598,129,127,129,127,126,128,127,126,0
4601,129,126,130,129,131,125,127,127,0
4604,130,127,128,126,126,128,127,128,0
4607,128,128,128,129,128,129,127,128,0
4613,127,126,127,128,129,128,128,127,0
4623,125,127,128,128,131,126,127,128,0
4627,128,127,126,127,127,129,128,128,0
4630,128,128,127,127,128,129,127,128,0
4634,127,128,125,126,125,129,126,127,0
4637,129,128,129,125,121,126,127,126,0
4640,126,128,128,127,127,128,127,129,0
4644,129,128,127,127,130,129,126,128,0
4647,128,128,127,126,127,128,128,126,0
4651,125,126,129,131,131,125,127,127,0
4654,129,127,128,129,125,129,128,130,0
4657,127,129,127,128,127,128,128,129,0
4661,129,128,128,126,126,126,126,127,0
4664,126,128,128,128,132,126,127,127,0
4668,127,127,128,127,127,130,128,129,0
4671,127,128,127,127,127,128,127,128,0
4676,129,127,129,127,125,129,126,127,0
4682,127,127,128,128,127,125,126,126,0
4686,127,128,128,127,127,130,128,129,0
4689,127,128,127,127,128,129,127,129,0
4692,130,128,127,127,126,129,125,126,0
4695,126,127,129,125,126,125,129,127,0
4698,127,126,128,131,129,126,128,128,0
4701,129,128,127,128,127,128,128,128,0
4705,129,128,126,127,124,129,127,128,0
4708,131,128,127,127,123,125,127,127,0
4712,130,127,128,129,124,128,129,129,0
4715,127,128,128,128,128,129,128,128,0
4718,127,129,126,127,127,129,128,128,0
4721,130,127,128,125,124,128,128,125,0
4724,123,127,127,125,126,128,128,128,0
4727,125,128,125,129,130,128,128,128,0
4730,126,128,127,128,128,128,128,128,0
4733,128,128,126,126,124,125,127,126,0
4736,123,127,129,129,134,125,127,128,0
4740,127,128,125,127,130,128,128,129,0
4744,130,128,129,128,128,129,127,127,0
4747,125,127,128,128,125,129,127,127,0
4750,128,127,128,130,133,126,127,127,0
4752,124,128,126,128,127,127,128,129,0
4756,130,128,128,128,126,128,127,128,0
4759,128,127,128,127,125,129,128,127,0
4762,125,126,131,129,133,125,126,127,0
4765,124,128,127,129,126,128,128,129,0
4768,129,128,127,127,126,128,128,128,0
4771,128,128,127,125,126,129,128,127,0
4775,126,127,129,125,126,127,128,128,0
4780,127,129,126,128,128,128,128,127,0
4785,126,128,128,129,128,127,128,127,0
4788,125,128,126,126,125,127,127,127,0
4792,128,126,130,130,130,126,127,127,0
4795,127,127,126,127,128,128,127,128,0
4798,129,128,128,127,129,128,127,128,0
4801,125,128,129,125,125,127,127,126,0
4804,126,127,131,128,131,126,127,127,0
4808,128,127,128,128,126,129,128,129,0
4811,130,128,127,127,129,129,128,128,0
4814,128,128,126,126,126,128,128,127,0
4817,124,127,128,129,133,125,128,128,0
4820,128,127,127,128,128,129,127,129,0
4823,128,128,126,128,127,129,129,128,0
4826,127,128,125,126,124,128,128,127,0
4829,126,126,128,130,133,126,127,127,0
4832,128,127,127,128,125,129,128,128,0
4835,128,129,129,127,127,128,127,127,0
4838,129,127,129,126,125,128,127,124,0
4840,129,128,127,125,124,127,128,127,0
4846,128,129,127,129,128,129,128,129,0
4849,127,127,126,128,128,128,128,128,0
4854,128,128,126,126,124,128,127,128,0
4857,124,127,128,130,133,125,127,128,0
4860,128,127,129,130,129,128,128,128,0
4864,128,128,130,128,127,129,128,128,0
4871,128,128,129,126,124,125,127,127,0
4867,130,127,127,127,125,129,128,127,0
4874,129,127,129,129,126,129,127,129,0
4879,129,128,127,127,130,129,129,129,0
4882,128,128,126,127,127,128,128,126,0
4886,123,127,128,124,122,125,128,128,0
4893,128,127,129,130,130,125,128,129,0
4896,129,128,128,128,129,128,127,129,0
4899,130,128,128,128,125,129,127,126,0
4902,125,127,129,125,124,126,128,125,0
4905,128,126,128,129,133,125,128,128,0
4908,127,128,126,129,128,129,128,128,0
4912,129,128,128,128,127,129,127,126,0
4920,125,127,128,128,128,126,127,126,0
4924,129,127,130,129,131,125,129,129,0
4929,127,128,127,129,127,127,128,129,0
4932,127,129,127,126,132,127,127,126,0
4936,126,127,127,125,125,129,128,125,0
4941,125,127,126,126,124,129,126,128,0
4944,129,128,128,128,127,129,126,128,0
4949,128,127,128,128,126,129,127,128,0
4951,128,128,128,127,123,128,127,126,0
4955,126,127,129,129,131,125,126,128,0
4958,130,127,127,127,129,129,128,129,0
4961,129,129,126,127,126,128,127,126,0
4964,128,128,129,126,124,129,128,124,0
4968,123,127,126,127,125,129,128,128,0
4972,126,128,126,128,129,128,128,130,0
4977,129,128,126,128,128,127,127,129,0
4980,127,127,127,128,126,127,127,127,0
4983,130,127,130,131,133,125,128,128,0
4987,127,128,127,128,127,128,127,129,0
4990,131,128,126,128,128,128,128,128,0
4993,127,128,125,126,125,128,128,126,0
4997,124,126,130,129,134,125,126,127,0
5002,127,127,126,126,128,128,129,127,0
5006,127,128,126,128,127,128,128,128,0
5010,128,128,126,127,123,127,127,127,0
5019,126,127,129,127,124,129,128,128,0
5024,129,128,130,127,131,128,127,129,0
5029,127,128,126,129,131,128,128,129,0
5056,126,128,127,126,126,127,126,126,0
5059,127,126,131,130,135,125,130,128,0
5063,128,126,127,129,128,130,128,128,0
5067,128,128,127,127,129,129,129,129,0
5071,126,128,125,127,123,129,127,126,0
5074,129,127,129,129,130,126,127,128,0
5078,127,127,128,128,127,129,128,129,0
5081,128,128,126,128,129,128,128,128,0
5087,127,128,126,127,123,128,128,125,0
5090,129,128,127,124,123,128,127,128,0
5099,129,129,126,128,127,129,127,128,0
5094,126,128,127,128,126,128,127,128,0
5103,129,128,129,127,125,128,126,127,0
5107,128,127,129,129,131,125,127,127,0
5114,130,127,129,128,127,129,128,128,0
5117,128,128,128,128,128,129,128,129,0
5120,129,127,127,128,124,127,126,126,0
5124,129,128,127,129,126,125,127,128,0
5128,127,127,128,129,125,129,128,128,0
5132,127,128,126,127,131,129,129,129,0
5136,128,128,126,125,126,128,128,128,0
5139,125,127,126,125,124,128,125,128,0
5145,127,128,126,126,126,128,125,128,0
5152,129,128,127,128,130,128,127,129,0
5156,127,128,126,128,129,128,127,128,0
5160,127,127,127,128,133,125,128,127,0
5167,129,127,127,131,133,125,128,128,0
5173,129,128,126,126,130,129,129,128,0
5177,128,128,125,127,127,128,128,127,0
5181,123,128,127,125,124,126,127,127,0
5185,128,127,129,129,130,125,127,129,0
5191,129,128,130,128,127,129,129,128,0
5194,128,128,126,126,128,129,129,126,0
5197,124,127,127,125,125,128,128,125,0
5200,125,128,126,128,125,129,128,128,0
5204,127,128,128,129,128,128,127,128,0
5207,128,128,129,128,127,129,126,126,0
5210,126,127,127,127,124,127,127,127,0
5214,129,127,129,130,133,125,126,128,0
5220,129,127,125,128,128,129,128,129,0
5226,130,128,128,127,126,129,128,128,0
5230,127,128,127,125,126,128,127,127,0
5233,129,127,130,130,131,125,126,127,0
5237,128,128,128,127,128,128,127,128,0
5240,129,127,129,126,127,128,128,128,0
5243,128,128,130,127,123,126,127,127,0
5247,127,126,129,131,133,125,127,126,0
5250,126,128,127,127,128,128,129,129,0
5254,128,128,126,127,127,128,128,128,0
5257,128,128,126,126,123,128,126,125,0
5260,125,127,129,127,124,129,129,129,0
5263,126,129,125,127,129,127,128,129,0
5266,129,129,126,128,129,129,129,129,0
5269,128,128,128,128,124,129,127,125,0
5273,126,126,128,129,132,126,128,127,0
5275,129,127,129,128,127,129,129,129,0
5278,130,128,127,127,126,129,127,128,0
5282,129,128,130,128,122,129,128,128,0
5286,123,127,127,127,123,126,126,128,0
5293,128,128,128,127,129,128,128,129,0
5297,126,128,125,129,129,128,128,128,0
5300,126,127,129,127,125,127,127,127,0
5302,124,126,130,130,132,126,128,127,0
5306,129,127,129,130,127,129,127,129,0
5309,128,128,127,129,131,129,128,128,0
5312,126,128,127,127,126,128,126,126,0
5318,128,127,127,125,124,127,127,127,0
5321,126,128,126,127,127,127,127,129,0
5324,129,128,129,128,129,129,127,127,0
5328,128,127,128,128,127,128,126,127,0
5338,130,126,130,130,137,125,128,127,0
5341,130,127,127,127,126,129,128,129,0
5345,128,128,127,127,130,129,128,128,0
5348,128,128,126,128,127,127,128,124,0
5351,125,127,127,124,123,129,127,128,0
5355,128,127,128,127,126,129,126,129,0
5358,130,128,128,129,130,128,127,129,0
5362,126,127,127,129,125,128,127,128,0
5365,127,128,127,130,135,126,129,128,0
5369,127,127,128,131,130,126,126,129,0
5374,130,128,126,129,131,129,128,129,0
5377,128,128,126,127,125,128,130,127,0
5385,126,127,129,129,126,125,126,127,0
5388,126,127,127,125,125,129,130,129,0
5392,128,128,125,127,127,129,128,128,0
5395,129,128,128,126,127,127,126,125,0
5398,127,128,127,125,122,128,127,127,0
5402,128,127,128,129,130,125,129,129,0
5405,129,128,127,127,130,129,128,129,0
5409,129,127,127,127,128,129,128,128,0
5414,125,128,128,128,127,125,126,127,0
5418,129,127,129,130,132,125,128,128,0
5421,129,128,129,127,128,128,127,128,0
5424,128,128,126,125,128,128,128,128,0
5428,127,127,126,125,124,128,129,125,0
5435,125,127,126,125,125,129,127,128,0
5438,130,128,128,128,127,129,127,128,0
5443,127,127,126,128,130,129,129,128,0
5447,123,127,128,125,126,124,128,127,0
5451,127,127,128,129,133,125,125,126,0
5454,131,128,127,127,127,129,127,129,0
5457,129,128,127,128,125,128,126,127,0
5460,131,128,129,128,128,126,126,127,0
5464,127,126,130,128,131,125,126,129,0
5467,127,128,126,127,127,129,129,129,0
5470,129,128,127,127,126,128,127,127,0
5474,129,128,126,127,124,129,127,123,0
5477,126,126,128,129,133,126,127,126,0
5480,124,129,126,126,126,128,128,129,0
5483,128,128,126,128,129,129,129,128,0
5486,129,128,128,127,123,127,127,126,0
5489,126,127,128,128,128,126,125,126,0
5493,126,128,126,127,128,129,128,128,0
5496,127,128,126,128,127,128,129,128,0
5500,128,127,125,126,125,129,128,127,0
5503,124,126,130,130,131,126,126,126,0
5507,125,128,127,126,128,129,128,128,0
5510,128,128,128,128,127,128,126,127,0
5514,128,128,130,126,125,127,127,127,0
5517,126,128,128,124,122,126,128,127,0
5526,128,127,128,128,127,129,128,129,0
5530,128,128,128,128,127,128,126,128,0
5538,128,127,131,127,124,126,126,126,0
5541,126,127,128,128,132,125,127,127,0
5546,129,127,128,127,126,129,128,128,0
5550,129,128,128,128,128,129,128,127,0
5554,127,127,130,126,128,125,128,128,0
5557,130,126,131,129,130,126,128,127,0
5560,128,127,128,129,127,129,127,128,0
5564,128,128,126,127,127,129,128,128,0
5567,129,128,130,127,124,129,127,126,0
5571,129,128,127,126,123,127,127,128,0
5574,127,128,127,127,129,128,129,129,0
5577,127,128,126,129,131,128,128,129,0
5581,127,128,126,126,129,124,129,125,0
5584,127,127,129,129,130,126,128,128,0
5587,128,127,128,128,127,129,129,128,0
5590,129,128,128,128,130,128,127,129,0
5593,128,128,125,126,126,129,128,128,0
5597,122,128,128,126,124,128,128,127,0
5599,126,128,126,127,127,128,128,129,0
5602,127,129,125,128,127,128,129,129,0
5605,128,128,127,126,126,127,125,127,0
5609,127,128,128,129,131,124,131,127,0
5614,128,127,127,130,126,128,127,128,0
5617,129,128,127,127,127,129,127,128,0
5620,130,128,128,127,128,128,129,125,0
5624,126,127,129,126,123,128,127,126,0
5626,129,127,130,130,133,125,126,129,0
5629,128,129,126,128,128,129,128,129,0
5632,128,128,126,126,128,129,129,128,0
5637,125,128,129,125,123,127,128,125,0
5642,122,128,127,126,126,129,128,128,0
5646,128,128,128,128,128,128,126,128,0
5652,128,127,129,129,129,129,127,126,0
5655,131,126,129,129,127,126,129,128,0
5658,130,127,131,130,132,125,126,129,0
5663,129,128,126,127,130,128,127,129,0
5666,130,128,130,126,129,129,127,128,0
5669,124,127,128,125,126,129,127,127,0
5673,123,127,128,129,128,125,126,129,0
5676,129,128,126,128,128,128,127,128,0
5679,128,127,127,127,129,129,127,128,0
5681,128,128,128,126,124,128,127,127,0
5684,129,127,130,130,133,125,127,127,0
5687,124,128,127,126,129,128,128,129,0
5691,130,128,128,126,128,128,127,127,0
5693,126,127,128,128,126,128,128,126,0
5697,127,127,130,131,132,126,127,127,0
5699,124,128,127,127,128,129,129,129,0
5704,128,128,126,126,128,129,128,128,0
5707,128,128,127,125,125,128,127,125,0
5710,128,125,127,125,124,129,127,128,0
5713,129,129,127,128,127,129,126,129,0
5716,127,128,126,128,127,128,128,128,0
5720,129,128,128,127,125,124,126,127,0
5724,128,126,130,131,131,126,127,128,0
5727,129,127,127,126,127,128,129,128,0
5730,126,128,127,127,126,128,128,128,0
5734,129,128,128,126,123,127,127,127,0
5737,126,127,127,127,125,128,127,127,0
5741,126,127,126,127,128,128,129,129,0
5744,127,128,127,128,129,128,129,129,0
5749,129,128,126,127,124,128,128,127,0
5759,127,126,129,129,133,125,128,128,0
5762,129,127,128,127,127,130,128,129,0
5766,129,128,127,127,127,128,128,128,0
5769,129,128,128,127,123,126,126,126,0
5773,129,127,127,128,131,125,127,128,0
5776,129,127,129,129,128,129,127,129,0
5779,130,128,128,127,127,128,129,129,0
5783,129,128,127,126,124,128,128,123,0
5786,127,127,127,127,129,125,129,128,0
5789,130,127,129,128,130,129,130,130,0
5792,128,128,126,126,129,129,130,129,0
5797,128,128,127,126,124,128,127,127,0
5801,130,127,128,130,131,125,129,127,0
5804,127,127,129,129,125,129,128,128,0
5808,128,128,127,128,129,128,128,129,0
5811,128,128,126,127,124,129,128,128,0
5815,130,127,129,125,124,128,128,127,0
5819,126,127,126,126,124,129,127,129,0
5822,130,129,127,128,128,128,128,129,0
5830,129,129,128,127,126,127,127,125,0
5834,124,128,127,125,125,124,127,127,0
5839,129,126,129,129,131,125,129,128,0
5843,130,128,127,127,129,129,127,129,0
5846,129,128,126,127,126,127,126,126,0
5850,128,128,126,126,125,125,126,126,0
5853,129,127,131,130,131,126,126,129,0
5857,129,129,125,128,128,128,128,128,0
5860,129,128,128,126,127,129,127,128,0
5863,124,127,127,125,124,128,127,126,0
5869,126,126,128,131,133,125,126,127,0
5872,129,128,127,129,130,129,127,129,0
5877,127,128,126,126,129,129,126,127,0
5882,127,128,130,127,124,125,127,127,0
5889,129,126,128,128,125,128,128,129,0
5893,127,128,127,127,130,129,127,128,0
5897,127,128,126,128,128,129,126,126,0
5900,125,127,127,125,126,128,127,126,0
5903,123,127,131,131,133,125,126,127,0
5906,126,128,126,128,130,128,126,128,0
5910,130,127,128,127,126,128,125,128,0
5913,129,127,130,125,125,126,125,126,0
5917,123,127,127,126,124,129,127,128,0
5920,127,128,126,128,129,128,127,128,0
5923,128,128,128,128,125,129,126,127,0
5926,127,128,127,126,126,124,128,127,0
5929,129,127,129,131,131,125,128,127,0
5932,128,127,125,127,129,129,127,127,0
5935,129,128,128,126,128,128,128,128,0
5937,128,128,126,124,125,128,128,125,0
5940,125,126,131,130,132,126,126,126,0
5944,122,128,127,128,129,129,127,128,0
5947,128,127,127,127,125,129,128,129,0
5950,129,128,128,127,123,127,126,128,0
5952,127,128,127,124,123,128,127,128,0
5955,127,128,126,127,127,128,128,129,0
5958,130,127,127,128,127,128,127,127,0
5961,129,128,127,126,124,126,128,126,0
5964,128,126,131,129,130,126,127,127,0
5967,128,127,127,128,128,129,128,128,0
5970,127,128,127,128,131,128,128,129,0
5973,126,128,127,128,127,129,129,123,0
5975,127,126,128,129,131,126,128,127,0
5979,128,127,127,129,128,129,129,129,0
5984,129,128,129,127,127,129,128,129,0
5990,130,128,127,126,123,127,131,124,0
5997,126,126,128,125,125,126,127,126,0
6001,127,127,128,127,126,129,127,129,0
6006,129,128,128,128,127,128,127,127,0
6009,128,128,128,126,125,128,127,125,0
6013,129,127,127,126,123,127,128,127,0
6016,123,128,126,128,128,127,127,128,0
6019,129,128,127,129,129,128,128,129,0
6022,128,128,127,127,124,127,128,128,0
6025,123,127,127,127,123,125,129,128,0
6029,129,126,129,130,133,126,126,129,0
6032,129,128,127,127,130,129,129,129,0
6036,129,129,125,127,124,128,127,128,0
6038,128,128,130,128,133,126,129,127,0
6042,128,127,128,130,130,126,128,129,0
6045,130,129,126,127,129,129,128,128,0
6048,129,128,128,129,126,128,127,125,0
6053,127,128,127,125,124,128,127,125,0
6056,125,127,127,125,127,127,128,129,0
6060,128,129,126,128,128,129,128,128,0
6062,129,128,129,129,127,129,127,126,0
6065,126,128,127,125,126,124,127,127,0
6068,129,126,130,129,132,125,127,129,0
6071,130,128,126,127,128,128,128,129,0
6074,129,128,128,128,128,128,127,126,0
6078,124,127,127,126,125,124,127,126,0
6081,129,127,128,130,131,125,127,128,0
6084,128,127,127,128,128,129,127,128,0
6087,129,128,128,128,126,129,126,127,0
6090,128,126,128,126,122,127,128,125,0
6096,126,126,129,129,134,125,127,126,0
6099,128,128,126,128,128,129,128,127,0
6104,127,129,127,126,129,129,127,127,0
6112,127,128,126,127,122,127,128,126,0
6115,126,127,127,129,130,125,127,129,0
6118,127,129,126,127,128,128,128,129,0
6121,129,129,127,127,127,129,127,128,0
6124,129,128,129,126,123,126,128,127,0
6130,126,126,129,130,134,126,127,127,0
6134,124,128,129,128,128,129,128,128,0
6137,126,128,127,126,130,129,128,129,0
6140,128,128,127,126,124,127,127,124,0
6144,126,127,128,129,132,125,127,127,0
6148,127,127,127,129,127,128,128,128,0
6150,127,128,128,129,127,128,127,127,0
6155,127,127,127,126,128,127,128,125,0
6157,124,125,127,127,125,129,128,128,0
6160,127,128,126,127,127,129,127,129,0
6163,129,127,129,129,128,129,127,127,0
6166,125,127,127,128,125,126,126,127,0
6169,123,125,131,131,136,125,129,127,0
6172,128,127,127,129,127,129,127,128,0
6175,127,128,127,128,129,129,127,129,0
6179,128,128,127,126,124,129,126,127,0
6182,127,126,129,130,133,126,128,128,0
6184,127,127,127,128,129,129,128,129,0
6187,127,128,126,128,130,128,127,128,0
6190,129,127,127,126,126,130,128,124,0
6193,129,128,128,125,123,128,128,127,0
6197,126,128,126,127,130,128,128,128,0
6200,127,128,127,128,131,128,129,128,0
6203,128,128,126,127,124,126,127,127,0
6208,127,127,130,131,137,124,128,128,0
6214,129,127,130,130,125,129,127,129,0
6217,128,128,126,128,127,128,127,128,0
6220,129,127,128,126,128,128,128,129,0
6223,126,127,126,127,133,125,128,127,0
6225,128,127,129,129,126,129,127,128,0
6229,128,128,127,127,129,129,128,128,0
6232,129,128,125,127,123,128,127,128,0
6235,129,126,127,125,124,125,128,126,0
6238,128,127,129,130,126,128,128,128,0
6241,128,128,126,127,130,128,127,128,0
6244,128,128,127,126,127,130,127,128,0
6247,127,127,128,128,132,126,128,126,0
6250,127,127,128,129,123,130,127,129,0
6254,127,128,127,127,127,129,127,128,0
6257,128,128,126,127,126,129,127,128,0
6261,128,128,130,125,122,128,127,125,0
6263,123,128,127,126,123,129,126,128,0
6266,129,128,129,130,131,129,127,127,0
6270,128,127,129,129,127,128,127,127,0
6274,126,126,129,130,133,124,131,127,0
6277,130,127,129,130,132,125,125,129,0
6280,129,128,127,128,129,129,128,129,0
6284,128,128,126,127,129,128,129,128,0
6287,124,127,130,128,123,127,127,124,0
6290,126,128,127,126,123,129,126,128,0
6294,129,128,127,129,130,127,128,128,0
6298,129,128,126,128,128,128,129,128,0
6301,129,127,127,127,123,127,129,127,0
6304,128,127,129,129,131,126,128,127,0
6309,131,127,127,127,129,128,129,128,0
6316,127,128,126,127,125,129,129,128,0
6319,129,127,128,125,125,129,128,125,0
6322,128,127,127,125,125,129,129,128,0
6325,126,128,126,127,129,129,130,129,0
6328,130,128,127,128,127,128,129,128,0
6331,128,128,126,126,125,128,129,126,0
6335,125,127,130,131,136,125,128,128,0
6338,129,128,129,127,129,129,128,128,0
6342,128,127,129,128,129,128,128,127,0
6345,128,127,128,126,126,129,128,126,0
6349,124,125,130,130,131,126,127,128,0
6352,127,127,125,126,129,129,128,129,0
6355,128,127,128,127,127,129,127,128,0
6358,128,128,128,126,125,129,128,128,0
6361,125,127,129,131,132,125,126,128,0
6364,128,126,127,128,127,129,126,129,0
6367,129,128,126,128,128,129,126,128,0
6370,128,127,129,127,123,129,126,128,0
6373,129,127,127,125,124,128,128,127,0
6376,126,129,126,127,127,129,128,129,0
6378,130,128,126,128,127,128,127,128,0
6382,128,128,128,126,124,127,127,127,0
6385,127,127,129,131,136,124,129,128,0
6388,128,127,128,127,126,128,126,128,0
6392,129,128,128,128,127,128,129,129,0
6395,128,128,127,125,125,128,128,127,0
6398,126,128,128,128,132,125,128,127,0
6401,128,127,128,125,125,129,127,128,0
6405,127,128,126,127,126,127,127,127,0
6409,127,127,130,128,127,127,128,127,0
6413,125,127,127,125,123,125,129,128,0
6417,129,127,129,129,127,129,128,128,0
6422,126,128,126,128,128,128,127,128,0
6426,129,127,127,126,127,128,128,125,0
6429,125,127,130,129,135,125,127,127,0
6437,129,127,128,129,128,129,129,129,0
6440,129,128,127,127,129,129,127,129,0
6444,127,128,125,125,128,129,128,127,0
6447,125,127,125,128,130,126,126,127,0
6451,129,127,128,127,130,129,128,128,0
6455,128,128,127,127,129,129,126,128,0
6458,128,128,128,128,125,129,125,126,0
6462,125,128,126,125,125,128,127,127,0
6465,124,127,126,127,127,128,127,130,0
6468,130,128,126,128,129,129,126,128,0
6471,127,127,127,127,127,130,127,128,0
6475,128,128,128,128,132,125,127,127,0
6478,128,127,129,130,132,125,125,128,0
6481,129,128,128,129,127,128,125,129,0
6484,129,127,127,127,125,129,127,128,0
6489,127,127,126,125,125,128,127,124,0
6491,123,128,127,127,124,129,126,128,0
6495,128,128,127,129,131,128,128,129,0
6498,126,127,127,128,126,127,126,127,0
6503,128,127,128,128,127,124,128,127,0
6506,130,127,129,130,132,125,125,127,0
6509,129,128,129,128,128,129,127,128,0
6513,128,128,129,127,127,129,127,126,0
6516,125,127,129,128,123,128,128,125,0
6519,126,126,131,129,131,126,125,126,0
6523,128,128,127,127,129,129,127,129,0
6527,130,127,130,127,126,128,128,128,0
6534,128,127,125,125,125,128,128,127,0
6537,122,127,126,125,126,128,127,129,0
6540,129,128,127,128,127,129,127,129,0
6544,130,128,128,128,128,128,127,128,0
6546,129,127,128,126,125,124,126,127,0
6549,129,127,132,128,133,126,127,127,0
6552,128,128,126,127,128,129,127,128,0
6555,127,128,125,126,130,128,127,127,0
6558,127,128,126,125,125,129,127,126,0
6561,124,127,128,127,126,124,127,128,0
6564,128,127,126,128,129,129,127,130,0
6567,129,129,125,129,129,129,128,128,0
6570,128,128,126,125,126,126,126,127,0
6573,126,125,129,128,130,125,127,128,0
6575,130,127,127,127,126,129,128,129,0
6578,129,128,127,128,128,129,127,128,0
6582,129,128,129,127,124,126,127,127,0
6586,125,126,129,128,132,125,127,127,0
6590,128,127,127,126,128,129,129,129,0
6593,129,128,127,126,130,128,128,128,0
6596,127,127,127,125,127,128,128,127,0
6599,128,128,127,126,125,125,127,127,0
6602,129,127,128,127,126,129,127,128,0
6605,130,128,127,127,126,129,128,129,0
6608,129,128,129,126,124,129,127,127,0
6611,125,127,127,126,123,128,128,127,0
6616,126,127,126,128,129,128,128,129,0
6619,127,129,127,129,128,128,128,128,0
6622,129,128,127,127,123,127,126,127,0
6625,128,126,130,130,132,126,128,128,0
6627,129,127,129,128,127,129,128,128,0
6634,129,128,128,128,127,127,129,129,0
6639,128,127,126,126,124,127,126,127,0
6642,130,127,128,124,124,127,128,127,0
6644,125,127,126,126,129,128,129,128,0
6647,127,128,125,128,130,129,128,129,0
6651,129,129,127,127,127,128,128,127,0
6655,125,127,128,128,134,124,128,127,0
6686,128,127,132,129,128,126,127,129,0
6691,130,129,127,128,127,129,127,129,0
6696,131,128,126,126,125,127,126,127,0
6700,128,128,126,125,125,128,129,125,0
6703,124,127,127,126,126,128,129,129,0
6707,129,129,126,127,128,127,127,129,0
6755,130,129,127,129,129,128,128,125,0
6765,128,128,128,127,125,124,128,126,0
6783,130,126,129,129,131,125,126,126,0
6789,127,128,126,127,130,128,129,129,0
6793,127,127,127,129,129,129,128,127,0
6822,125,127,126,126,124,126,128,127,0
6828,129,127,130,130,132,125,126,129,0
6834,128,128,127,127,130,128,128,128,0
6891,128,128,127,128,127,128,129,128,0
6901,128,128,126,124,124,128,128,124,0
6911,125,126,130,129,133,125,127,126,0
6917,128,128,126,129,129,129,130,129,0
6922,128,128,129,127,126,129,128,128,0
6961,127,128,129,128,124,128,128,125,0
6970,128,127,128,130,132,125,127,124,0
6974,127,128,126,128,128,129,129,128,0
6978,128,128,128,127,128,128,128,128,0
6982,127,127,126,125,122,128,127,126,0
6985,125,126,127,126,124,129,128,127,0
6988,129,128,128,129,129,128,128,129,0
6991,127,128,127,129,128,128,126,127,0
6996,128,127,129,127,123,128,126,124,0
7000,128,126,129,130,134,125,127,127,0
7004,128,127,126,128,129,129,128,129,0
7007,128,128,126,127,128,128,129,129,0
7011,128,127,127,127,124,128,128,127,0
7014,126,127,130,129,132,125,127,127,0
7017,129,127,125,127,129,129,128,129,0
7024,129,128,127,127,129,128,129,128,0
7027,128,128,127,125,125,127,127,126,0
7031,126,128,129,129,132,126,128,128,0
7034,128,127,127,129,129,129,129,129,0
7037,127,127,126,129,128,129,127,127,0
7041,127,128,126,126,125,128,129,126,0
7044,123,128,127,128,133,126,126,128,0
7047,128,127,128,127,126,129,127,129,0
7050,127,128,127,127,130,129,128,128,0
7054,127,128,126,126,125,129,126,127,0
7057,126,127,126,127,129,125,126,127,0
7060,129,128,127,128,125,128,127,129,0
7064,128,129,126,127,129,128,128,129,0
7070,128,128,127,126,126,129,127,128,0
7076,126,128,127,126,122,127,126,126,0
7086,125,128,127,127,128,128,128,129,0
7094,129,128,127,128,128,128,127,127,0
7099,128,127,129,128,127,124,128,128,0
7102,126,126,128,130,134,126,127,127,0
7106,128,127,130,131,131,125,127,128,0
7109,130,128,126,129,130,129,127,128,0
7112,128,127,126,127,126,129,127,127,0
7160,127,128,128,125,123,126,127,126,0
7171,126,128,128,126,128,127,127,128,0
7180,126,128,126,128,129,128,129,129,0
7188,129,128,127,128,128,125,127,128,0
7193,127,127,128,130,132,125,126,127,0
7229,129,127,130,130,132,126,125,129,0
7239,129,128,127,128,128,129,126,129,0
7247,130,128,128,128,126,127,126,126,0
7253,126,126,128,128,129,126,129,127,0
7258,128,127,129,128,126,130,128,128,0
7262,127,128,127,128,128,129,127,128,0
7266,128,127,128,126,127,129,126,126,0
7269,126,128,130,128,123,130,126,126,0
7274,127,128,128,129,128,126,128,128,0
7277,128,128,126,126,129,129,128,129,0
7282,129,128,127,127,127,129,127,128,0
7287,128,128,130,126,122,127,127,126,0
7290,128,127,131,130,133,125,128,129,0
7294,129,128,127,128,128,128,128,129,0
7297,129,128,126,127,128,128,127,128,0
7300,129,127,126,126,126,125,128,126,0
7303,129,126,131,130,132,125,126,128,0
7307,127,128,126,126,129,128,129,128,0
7310,129,128,127,128,125,129,127,127,0
7314,128,128,126,124,123,128,129,127,0
7319,123,127,127,125,126,128,129,127,0
7322,127,128,126,128,131,128,127,129,0
7325,127,128,127,129,129,128,128,128,0
7328,127,127,127,128,126,127,129,127,0
7332,129,126,129,129,130,125,127,126,0
7335,124,128,126,128,130,129,127,129,0
7338,129,128,126,127,125,128,129,128,0
7341,128,128,126,126,123,128,128,127,0
7345,127,127,127,126,124,127,127,127,0
7348,127,128,127,128,130,128,129,129,0
7352,127,127,126,129,130,128,129,129,0
7356,125,127,127,126,126,125,126,127,0
7360,129,126,130,130,131,126,127,127,0
7363,128,126,128,127,127,129,127,129,0
7367,129,129,126,127,127,128,126,128,0
7375,131,128,128,126,125,124,128,128,0
7378,126,127,127,125,124,128,129,128,0
7381,128,128,128,127,126,127,128,129,0
7384,129,128,127,128,128,128,126,127,0
7387,125,127,128,128,129,127,126,128,0
7390,128,127,128,129,132,125,128,128,0
7395,130,127,127,128,131,129,128,129,0
7397,129,128,127,128,126,129,127,128,0
7400,129,127,127,126,122,127,126,128,0
7403,130,128,128,129,128,125,127,126,0
7406,127,127,127,126,128,128,130,129,0
7410,128,128,128,128,129,129,129,129,0
7413,128,127,127,127,123,126,128,128,0
7427,129,127,129,125,126,125,128,127,0
7433,128,127,130,130,126,129,128,129,0
7441,130,129,126,127,130,129,127,128,0
7447,128,128,126,126,128,128,129,126,0
7451,125,125,129,131,131,126,128,127,0
7455,128,127,129,128,125,130,128,129,0
7458,129,128,128,128,129,128,128,128,0
7462,129,128,127,126,127,129,129,128,0
7465,128,127,128,126,122,128,128,125,0
7498,124,127,128,126,128,128,127,128,0
7509,127,128,127,129,130,128,127,128,0
7515,127,128,126,128,129,128,128,127,0
7519,124,127,128,127,124,125,127,127,0
7524,128,127,129,131,132,124,127,129,0
7565,130,129,128,128,127,128,127,128,0
7574,130,128,128,127,126,127,128,128,0
7584,124,127,127,125,122,128,127,127,0
7592,128,127,130,129,132,126,126,129,0
7598,129,128,126,127,127,128,128,128,0
7603,130,128,126,128,127,129,127,128,0
7607,130,127,126,126,124,127,127,123,0
7610,124,128,128,129,134,126,126,129,0
7613,128,128,126,127,130,128,129,128,0
7617,127,128,126,127,127,129,127,128,0
7620,128,128,127,126,122,127,128,124,0
7623,126,127,128,126,126,124,128,128,0
7627,130,128,129,129,129,129,128,128,0
7630,127,129,127,129,130,128,129,128,0
7633,128,128,126,127,126,128,128,127,0
7637,129,127,130,130,132,126,127,128,0
7642,127,128,126,127,126,129,127,128,0
7647,130,128,130,128,126,129,127,128,0
7651,128,128,127,126,124,128,127,125,0
7655,123,127,127,125,124,129,128,128,0
7658,128,128,128,127,128,128,127,128,0
7661,129,127,129,129,128,128,127,127,0
7664,124,129,128,130,130,125,128,127,0
7668,127,127,128,129,132,126,129,127,0
7677,127,125,127,127,127,129,128,129,0
7681,129,127,127,127,126,129,127,127,0
7685,128,127,128,127,123,129,127,126,0
7688,127,128,129,130,131,125,128,128,0
7692,127,128,127,128,129,128,128,129,0
7695,129,128,126,127,127,129,128,127,0
7698,128,127,126,126,126,128,129,127,0
7702,123,128,127,124,122,129,128,128,0
7705,128,128,127,129,128,128,127,129,0
7708,128,128,129,129,128,128,127,128,0
7712,128,128,126,127,123,127,127,126,0
7715,122,127,128,127,125,125,128,127,0
7717,128,128,126,128,128,128,127,128,0
7720,129,129,127,128,130,128,128,128,0
7723,129,128,128,127,127,128,128,127,0
7726,127,126,130,132,136,125,127,127,0
7729,130,127,129,128,131,129,128,130,0
7732,128,128,127,127,129,128,128,128,0
7736,128,128,125,125,127,127,128,125,0
7739,127,126,129,127,129,125,128,127,0
7742,129,127,128,125,125,129,127,129,0
7746,130,128,126,128,127,129,127,128,0
7752,127,128,130,127,126,127,127,124,0
7756,126,127,127,126,123,128,127,126,0
7761,126,128,128,127,127,127,126,128,0
7764,129,128,128,128,126,128,126,128,0
7768,129,128,129,127,127,127,127,126,0
7772,125,127,130,131,132,126,128,127,0
7775,128,127,129,131,131,125,127,129,0
7778,130,128,128,128,128,129,127,128,0
7782,129,128,126,127,127,129,129,128,0
7785,124,127,127,125,122,127,128,126,0
7788,126,127,128,129,131,125,129,129,0
7792,128,128,128,128,130,129,127,129,0
7796,129,128,126,128,128,129,127,129,0
7799,124,127,128,125,123,126,128,125,0
7802,127,127,128,130,133,125,125,128,0
7805,127,128,127,128,130,129,127,129,0
7807,129,128,127,127,126,128,126,125,0
7810,127,127,129,128,128,126,126,127,0
7813,129,128,130,130,132,126,125,129,0
7815,128,128,126,128,128,129,129,129,0
7818,127,128,125,128,129,129,127,128,0
7821,126,127,126,125,124,129,127,124,0
7824,126,127,127,128,125,130,128,128,0
7829,127,128,128,128,130,128,126,128,0
7833,128,128,128,127,129,128,128,127,0
7836,126,127,127,127,126,128,127,127,0
7839,127,127,129,131,134,125,126,128,0
7843,123,128,128,128,128,129,128,128,0
7846,129,127,128,127,128,128,127,127,0
7850,127,125,128,128,123,128,126,125,0
7854,123,128,128,130,133,126,126,127,0
7858,125,128,126,128,129,129,127,128,0
7862,127,128,126,127,127,128,128,129,0
7868,126,128,126,126,125,129,127,125,0
7872,124,128,127,125,123,128,126,128,0
7875,129,128,129,129,127,128,126,128,0
7878,129,128,128,129,128,128,127,127,0
7880,126,128,128,128,128,125,126,124,0
7886,129,127,129,129,131,126,127,127,0
7889,129,127,127,128,128,129,127,128,0
7893,127,128,128,127,128,129,128,128,0
7896,126,128,127,125,126,128,127,127,0
7899,127,127,127,125,125,128,128,128,0
7904,127,128,127,127,126,128,127,129,0
7908,130,128,128,128,126,127,126,127,0
7911,128,127,128,128,125,125,127,127,0
7914,129,126,128,129,130,125,128,128,0
7917,129,127,128,129,126,129,127,129,0
7920,130,128,126,127,129,128,128,129,0
7924,129,128,127,126,122,127,129,125,0
7929,126,127,128,128,132,126,128,127,0
7932,129,127,127,127,128,129,128,128,0
7935,129,128,127,127,129,129,128,127,0
7939,128,128,128,128,124,129,126,125,0
7943,126,127,127,127,127,126,126,127,0
7946,129,127,129,126,128,129,128,128,0
7950,128,128,127,127,129,129,128,128,0
7954,128,128,127,126,126,126,126,125,0
7960,127,127,127,127,127,128,128,128,0
7957,127,126,127,124,121,126,128,127,0
7964,129,128,127,128,131,129,127,128,0
7969,129,128,129,127,125,128,126,127,0
7973,129,127,131,130,131,125,126,127,0
7980,129,127,130,131,131,126,126,128,0
7988,129,128,126,129,129,128,129,128,0
7994,130,129,126,127,124,128,126,126,0
7999,127,128,128,125,122,126,127,127,0
8003,128,127,128,126,126,128,127,127,0
8006,126,128,128,129,130,128,128,128,0
8009,127,128,125,128,128,128,127,127,0
8013,128,128,130,131,129,124,128,128,0
8016,129,127,128,130,132,124,128,129,0
8019,130,128,128,127,129,129,127,129,0
8023,128,129,125,128,127,128,129,127,0
8026,124,128,127,126,124,128,127,127,0
8029,129,126,130,130,133,126,126,129,0
8032,129,128,128,127,129,129,126,128,0
8035,128,128,127,127,127,129,128,128,0
8038,127,128,127,127,124,128,128,123,0
8042,126,126,130,129,132,126,126,129,0
8045,129,128,126,127,130,129,129,129,0
8048,127,128,127,128,129,129,128,128,0
8050,125,128,126,127,123,125,127,127,0
8053,129,127,129,129,132,126,128,128,0
8056,128,128,126,127,128,128,128,129,0
8060,127,128,127,126,126,129,126,127,0
8064,128,128,127,126,125,129,127,126,0
8067,125,127,128,127,124,128,127,129,0
8070,129,128,127,128,128,128,127,129,0
8073,128,128,126,128,128,128,127,127,0
8075,127,127,128,127,124,125,126,125,0
8078,124,125,131,130,132,125,127,127,0
8082,130,127,129,128,128,128,127,129,0
8088,130,129,126,128,130,128,127,128,0
8092,127,127,128,125,127,127,127,126,0
8096,126,127,128,129,130,126,128,128,0
8104,130,128,127,128,127,128,128,128,0
8100,129,127,126,126,130,128,127,129,0
8107,129,128,126,126,124,129,129,126,0
8110,127,127,129,128,130,125,128,127,0
8113,125,128,127,128,127,129,128,129,0
8116,129,128,126,128,129,128,128,128,0
8120,128,128,126,127,126,127,127,127,0
8122,124,127,128,125,124,124,126,128,0
8128,128,127,128,128,126,128,127,129,0
8135,128,129,125,128,129,129,128,129,0
8139,130,128,129,125,126,125,126,126,0
8143,127,127,128,125,123,125,127,127,0
8146,127,128,127,128,128,129,127,128,0
8149,130,129,126,128,128,128,127,126,0
8152,127,127,128,128,127,127,128,128,0
8155,129,126,130,128,132,126,128,128,0
8158,128,126,129,128,129,129,128,128,0
8161,130,128,127,127,129,129,129,129,0
8165,129,128,127,126,123,128,129,127,0
8169,123,127,127,127,130,126,127,128,0
8172,129,127,129,128,129,129,128,128,0
8175,128,128,127,128,129,127,130,128,0
8179,128,128,125,127,126,128,130,127,0
8181,126,127,127,127,128,125,127,127,0
8184,128,127,129,129,129,128,129,128,0
8187,129,128,126,127,130,128,128,129,0
8190,130,128,126,127,126,128,128,127,0
8194,124,125,127,127,123,127,127,125,0
8198,127,127,129,130,130,127,126,128,0
8204,129,128,126,128,129,129,128,129,0
8207,128,128,126,127,128,129,128,128,0
8212,125,126,127,125,124,124,128,128,0
8216,127,127,129,130,130,125,128,128,0
8219,128,128,127,127,131,129,128,128,0
8221,130,128,126,127,125,128,127,127,0
8224,130,127,126,125,124,128,128,126,0
8227,128,127,130,129,134,126,127,128,0
8233,129,129,127,128,129,128,128,129,0
8236,128,128,127,128,126,128,126,126,0
8240,125,128,127,125,123,128,127,127,0
8244,130,127,129,129,133,126,126,128,0
8247,130,128,128,128,129,129,126,128,0
8250,127,129,127,128,129,130,128,127,0
8254,124,127,128,128,126,125,127,125,0
8257,126,127,128,128,127,126,127,129,0
8266,128,128,127,129,127,128,127,129,0
8272,130,128,128,126,128,129,127,128,0
8275,128,128,126,126,124,129,128,124,0
8279,125,126,131,130,132,126,128,129,0
8290,129,128,126,128,128,128,128,129,0
8295,130,128,128,127,129,128,127,126,0
8298,125,127,128,126,125,128,127,124,0
8302,125,125,128,130,131,126,127,127,0
8306,123,128,128,127,129,128,127,129,0
8310,129,128,127,128,129,129,127,129,0
8314,128,128,126,126,124,128,128,124,0
8317,126,126,129,128,131,125,129,128,0
8320,128,127,126,126,129,128,128,129,0
8324,128,128,126,129,126,128,127,128,0
8327,128,128,130,128,126,124,127,127,0
8332,125,126,129,130,133,126,128,128,0
8339,127,127,127,127,130,128,127,129,0
8347,128,128,126,127,127,128,127,128,0
8355,129,127,127,126,125,127,128,126,0
8359,123,127,129,129,132,126,127,128,0
8362,128,127,127,128,129,128,128,129,0
8366,130,127,129,127,128,128,129,128,0
8369,128,128,127,128,128,129,128,126,0
8373,125,126,129,128,126,126,126,127,0
8375,126,127,127,128,129,129,128,128,0
8379,127,128,126,129,129,128,127,128,0
8383,129,128,126,127,124,129,127,126,0
8386,125,127,130,129,130,124,128,127,0
8390,129,127,128,126,126,129,127,129,0
8394,128,128,126,128,130,128,129,129,0
8397,128,128,126,125,127,129,128,128,0
8400,127,127,128,125,127,125,128,128,0
8403,128,126,129,126,128,128,128,129,0
8406,128,128,128,128,128,128,128,128,0
8409,128,128,126,127,127,128,129,127,0
8413,126,127,127,127,127,125,127,127,0
8416,127,127,130,129,124,129,127,128,0
8418,129,129,127,129,129,128,128,128,0
8421,128,127,126,126,127,129,126,127,0
8425,126,126,126,125,120,127,127,128,0
8428,127,127,130,130,124,129,127,129,0
8432,128,129,126,128,125,127,127,129,0
8435,130,128,127,128,125,128,126,126,0
8438,126,127,127,125,121,126,128,127,0
8441,128,127,129,130,128,128,127,129,0
8448,128,128,128,128,128,128,126,128,0
8452,127,128,127,127,125,128,126,127,0
8456,124,127,127,127,122,128,127,126,0
8461,127,126,129,129,131,125,129,128,0
8465,128,129,127,128,130,128,127,128,0
8471,129,128,127,128,126,129,127,125,0
8475,129,128,127,127,123,123,127,127,0
8478,127,127,129,129,132,125,127,128,0
8481,128,129,128,127,128,128,129,128,0
8485,129,128,126,127,129,128,128,128,0
8488,126,127,127,125,122,126,127,124,0
8491,126,127,128,127,124,129,128,129,0
8495,128,128,128,130,130,128,128,128,0
8498,129,128,129,128,128,128,127,128,0
8502,129,128,127,129,133,125,127,126,0
8506,128,126,128,130,132,125,126,126,0
8511,129,128,127,129,128,128,127,129,0
8515,130,128,125,127,128,128,129,128,0
8518,127,127,126,125,125,128,128,126,0
8522,128,127,129,129,130,126,126,128,0
8526,128,128,128,129,127,129,128,129,0
8530,129,128,127,128,127,129,128,127,0
8533,128,127,128,126,124,128,128,126,0
8535,122,127,128,125,125,128,128,128,0
8540,128,128,128,128,127,127,128,128,0
8545,128,128,126,128,130,128,129,129,0
8548,127,126,125,126,126,125,127,127,0
8552,127,126,130,131,130,126,127,128,0
8555,128,127,126,129,129,128,127,129,0
8558,128,128,127,127,127,128,127,128,0
8562,129,128,125,126,125,128,128,126,0
8565,125,126,129,130,132,126,127,127,0
8568,127,127,129,128,127,129,128,128,0
8572,127,129,127,127,127,128,129,128,0
8575,127,128,126,127,125,129,128,128,0
8581,126,126,129,128,130,126,126,126,0
8586,125,127,129,126,128,129,127,128,0
8592,129,128,126,126,128,129,128,129,0
8596,128,128,126,126,122,128,126,126,0
8599,126,125,129,128,130,125,127,127,0
8602,127,126,128,128,126,129,128,129,0
8605,126,128,128,127,129,128,127,129,0
8608,128,128,125,125,125,129,128,125,0
8611,126,126,128,124,123,128,128,127,0
8615,129,128,129,129,128,128,127,128,0
8618,128,128,129,129,129,129,128,129,0
8621,126,128,126,126,126,129,128,126,0
8624,124,126,130,129,130,126,126,127,0
8627,130,127,128,126,130,129,129,129,0
8631,127,128,127,129,131,129,129,128,0
8634,128,129,126,127,125,128,127,125,0
8637,127,126,130,129,130,126,126,127,0
8639,129,127,129,130,124,129,127,129,0
8642,129,128,126,128,128,128,127,128,0
8644,129,128,126,127,126,129,127,125,0
8647,128,127,127,124,123,127,126,126,0
8650,125,128,127,127,126,127,128,130,0
8652,129,128,125,129,128,126,128,129,0
8655,128,128,125,129,129,127,128,127,0
8657,128,126,127,128,124,127,127,126,0
8660,128,126,129,131,133,125,128,128,0
8663,130,128,127,129,131,129,128,128,0
8666,128,128,126,128,128,128,128,127,0
8668,123,128,126,127,132,124,128,127,0
8671,128,127,131,130,132,125,127,128,0
8675,128,128,127,128,129,128,127,129,0
8678,128,128,126,128,129,129,129,128,0
8682,127,128,129,125,126,126,127,127,0
8688,126,127,128,131,133,125,127,129,0
8691,128,128,126,129,130,129,130,128,0
8694,126,128,128,128,128,130,128,126,0
8696,126,127,127,125,127,125,128,127,0
8699,129,127,129,131,130,125,129,129,0
8702,127,128,126,128,127,129,129,128,0
8708,128,128,125,127,127,130,127,126,0
8712,127,128,130,128,126,128,128,127,0
8716,125,127,129,129,129,126,128,126,0
8720,129,128,126,128,129,129,127,129,0
8724,130,127,128,128,130,128,127,127,0
8728,124,128,127,127,126,127,130,126,0
8731,126,127,128,128,132,126,126,125,0
8735,129,128,127,127,129,128,127,128,0
8738,130,128,126,127,128,129,129,128,0
8742,128,128,127,126,125,128,128,126,0
8746,124,126,130,129,132,126,127,127,0
8750,127,129,126,127,127,129,128,128,0
8754,129,128,127,127,128,128,127,128,0
8757,127,128,126,125,125,129,127,126,0
8761,125,127,127,125,122,128,128,127,0
8764,128,128,128,128,127,128,126,129,0
8768,129,128,127,129,129,128,127,128,0
8772,129,127,129,129,131,126,126,126,0
8775,128,127,131,130,131,126,127,126,0
8778,127,125,127,126,126,128,128,128,0
8780,129,128,127,127,125,128,128,129,0
8784,130,128,127,126,122,126,128,126,0
8787,122,127,128,124,123,125,127,127,0
8791,131,127,129,129,130,128,128,128,0
8794,129,128,126,129,128,129,129,128,0
8798,128,127,130,125,123,126,126,128,0
8804,126,126,129,130,130,126,128,128,0
8810,129,127,128,126,124,129,129,130,0
8813,128,128,127,128,128,128,129,129,0
8816,129,128,127,126,125,129,129,126,0
8819,126,125,129,129,127,125,130,127,0
8822,127,127,128,127,127,128,130,129,0
8825,128,129,126,127,129,128,128,129,0
8829,130,128,128,126,124,126,128,126,0
8832,128,127,129,131,132,126,127,127,0
8836,129,127,129,127,126,129,129,129,0
8839,129,128,128,128,128,128,128,128,0
8842,130,127,128,128,126,128,128,127,0
8845,123,127,129,125,122,125,128,128,0
8850,128,127,129,130,124,128,129,130,0
8853,130,128,126,129,128,129,128,128,0
8857,128,128,127,127,125,129,127,127,0
8860,126,126,127,125,122,125,128,128,0
8863,128,127,130,130,125,129,129,129,0
8866,127,128,127,128,128,128,130,129,0
8870,130,128,127,128,126,128,128,126,0
8873,125,128,128,128,127,125,129,126,0
8876,125,127,128,129,123,130,127,129,0
8879,130,129,126,129,129,128,128,128,0
8882,130,128,128,128,126,128,126,127,0
8892,128,128,130,129,126,126,128,127,0
8895,125,127,128,128,130,127,126,128,0
8900,130,128,127,129,129,128,128,129,0
8903,129,128,128,126,127,129,127,127,0
8906,129,127,126,127,122,126,125,124,0
8910,128,126,129,128,132,125,124,129,0
8914,130,128,127,127,129,127,127,128,0
8920,126,128,126,127,127,128,127,127,0
8924,130,127,128,126,122,127,127,126,0
8929,129,126,131,129,130,125,126,126,0
8933,129,128,126,128,123,127,124,128,0
8936,129,128,126,127,123,128,126,127,0
8939,127,128,125,124,121,127,125,126,0
8943,127,126,129,130,130,125,125,125,0
8946,129,128,126,127,130,129,126,128,0
8949,128,127,126,127,129,128,126,127,0
8953,128,128,130,125,125,129,126,123,0
8956,125,126,129,129,133,126,125,126,0
8959,126,128,126,127,130,130,127,127,0
8961,129,128,125,127,130,128,126,127,0
8964,128,128,126,126,129,127,126,123,0
8967,124,127,127,125,125,129,126,128,0
8971,129,128,128,128,129,129,127,129,0
8974,129,128,128,128,128,129,126,128,0
8977,129,128,127,127,128,128,126,127,0
8980,128,126,129,129,135,126,127,127,0
8983,127,126,128,128,130,128,127,129,0
8985,128,128,128,127,129,129,127,128,0
8988,129,128,128,126,124,126,126,125,0
8991,123,126,129,129,132,126,127,127,0
8995,126,127,128,126,127,129,127,129,0
8997,130,129,126,128,130,129,128,129,0
9002,129,128,126,126,124,126,126,127,0
9005,128,127,129,130,134,126,128,127,0
9012,128,126,128,126,128,129,127,128,0
9014,126,128,126,128,130,129,127,128,0
9017,130,128,127,126,126,129,127,125,0
9022,126,127,127,124,125,127,128,127,0
9027,124,129,126,128,129,128,128,128,0
9033,127,128,128,128,129,128,128,127,0
9036,128,128,127,128,127,127,127,126,0
9039,125,127,128,131,133,125,129,126,0
9042,128,126,129,130,126,129,129,129,0
9046,127,129,127,129,128,128,129,128,0
9049,127,127,126,126,126,128,128,126,0
9052,126,127,129,130,132,126,127,127,0
9055,128,127,130,130,129,129,129,129,0
9058,128,128,126,128,128,129,127,129,0
9061,129,128,126,126,127,130,128,127,0
9064,125,127,126,124,125,125,128,127,0
9068,127,127,129,130,125,129,130,128,0
9072,127,128,127,127,129,128,128,129,0
9076,128,129,126,126,128,129,129,127,0
9079,126,127,127,125,123,128,128,126,0
9082,123,127,126,128,128,127,127,129,0
9085,127,129,126,128,130,128,128,129,0
9088,130,128,128,127,124,126,126,127,0
9091,127,127,128,129,132,125,127,126,0
9096,128,126,131,129,131,125,127,128,0
9098,128,128,126,127,125,128,128,129,0
9101,130,128,128,128,126,129,126,125,0
9108,130,127,127,126,122,126,127,126,0
9111,127,126,129,130,133,125,128,127,0
9115,128,128,126,128,126,129,128,128,0
9118,128,128,127,128,128,129,128,127,0
9121,124,127,126,125,125,125,128,127,0
9125,127,126,129,129,133,125,127,128,0
9130,130,128,128,128,128,128,127,129,0
9134,127,129,126,127,128,128,127,128,0
9138,128,128,127,126,128,125,128,126,0
9143,127,127,129,128,130,125,127,128,0
9147,129,128,127,127,127,129,127,128,0
9150,127,128,128,127,127,129,128,128,0
9153,127,128,126,126,125,127,127,125,0
9156,126,126,129,130,133,126,125,128,0
9159,129,128,127,129,125,128,127,129,0
9163,129,128,127,127,128,128,128,128,0
9166,127,128,127,126,122,126,127,122,0
9169,122,125,131,130,131,126,124,125,0
9171,129,129,128,129,128,128,128,129,0
9174,128,128,127,129,128,128,127,128,0
9177,127,127,126,126,124,128,128,125,0
9180,128,126,129,129,132,125,128,127,0
9183,129,125,129,126,128,129,128,129,0
9190,127,128,127,128,130,128,128,128,0
9194,127,128,126,125,128,128,129,126,0
9197,123,127,130,129,128,126,128,127,0
9201,125,128,127,127,127,128,128,129,0
9205,130,128,127,127,127,128,127,128,0
9209,129,128,127,127,124,128,128,127,0
9212,124,127,129,128,133,126,128,127,0
9215,128,127,127,127,126,128,128,129,0
9219,129,128,128,127,130,129,129,128,0
9222,128,129,126,125,123,127,128,127,0
9225,127,127,128,126,123,128,128,126,0
9229,127,128,128,128,130,128,129,129,0
9232,128,127,127,129,131,128,129,129,0
9235,127,127,126,127,126,128,127,126,0
9238,124,127,130,129,131,126,129,127,0
9243,129,126,130,130,132,125,130,129,0
9249,130,129,126,127,129,129,128,127,0
9254,129,128,128,127,126,128,128,125,0
9258,127,127,127,127,131,126,128,128,0
9261,128,126,129,128,127,129,129,128,0
9264,129,128,127,128,128,128,128,128,0
9267,129,128,127,126,128,128,127,127,0
9271,127,128,127,124,127,126,127,127,0
9275,129,126,130,130,123,129,127,129,0
9277,128,128,128,128,127,128,128,128,0
9280,128,128,126,127,125,128,127,128,0
9283,123,127,128,125,126,125,128,127,0
9287,128,127,130,130,125,129,129,128,0
9289,129,129,128,128,128,128,129,129,0
9294,128,128,128,127,125,128,127,127,0
9298,123,127,126,124,123,128,127,125,0
9302,125,128,128,126,127,128,128,128,0
9307,129,128,126,129,130,128,127,128,0
9310,129,128,128,128,128,129,128,126,0
9314,123,127,128,127,127,125,130,126,0
9318,131,127,129,131,133,125,126,128,0
9321,128,128,127,128,129,128,128,128,0
9324,127,128,127,127,125,129,126,127,0
9328,127,127,127,126,122,126,127,127,0
9331,128,126,128,131,130,125,127,129,0
9335,130,128,126,129,128,128,128,128,0
9338,129,128,128,127,128,128,126,128,0
9342,131,127,127,125,124,128,127,125,0
9345,125,127,127,127,124,128,128,129,0
9348,128,129,126,128,131,127,128,129,0
9355,128,128,126,127,129,128,129,128,0
9358,125,128,127,127,125,124,128,127,0
9364,128,127,130,130,131,125,125,125,0
9369,128,128,126,128,128,128,129,129,0
9372,129,127,127,126,128,128,126,128,0
9376,126,127,127,128,126,128,126,126,0
9379,127,126,129,130,132,126,126,125,0
9382,132,128,127,127,130,129,128,129,0
9386,130,128,126,128,128,128,130,129,0
9389,127,128,125,126,124,128,129,126,0
9392,125,127,129,129,131,125,128,127,0
9395,125,128,126,127,129,129,129,128,0
9398,129,129,125,126,129,129,129,129,0
9401,130,128,126,125,125,129,129,127,0
9404,126,126,130,130,133,125,129,126,0
9407,126,128,127,127,129,128,130,129,0
9410,128,129,127,128,127,128,129,128,0
9414,127,128,125,126,125,129,129,125,0
9417,126,127,128,128,129,125,128,128,0
9421,128,126,129,127,126,128,128,129,0
9425,126,128,128,128,130,128,129,127,0
9428,128,128,127,126,127,127,129,125,0
9431,129,127,130,129,130,126,127,127,0
9434,128,126,127,127,129,129,129,129,0
9437,128,128,127,128,130,129,128,129,0
9440,129,128,126,126,124,126,127,127,0
9443,126,126,129,130,130,126,126,127,0
9446,128,127,127,128,129,129,127,129,0
9450,128,129,127,127,131,128,127,128,0
9453,127,128,127,128,127,130,127,128,0
9457,125,127,127,125,123,125,127,127,0
9460,127,128,128,128,128,129,127,128,0
9467,128,128,127,129,130,128,128,129,0
9470,127,128,125,127,125,127,126,127,0
9477,126,127,128,125,123,126,128,127,0
9479,126,127,129,130,128,129,127,128,0
9482,127,128,128,128,130,128,127,128,0
9486,129,128,127,127,125,127,127,125,0
9489,127,127,129,129,133,126,128,127,0
9496,128,126,128,130,126,130,128,129,0
9502,130,128,126,128,129,128,127,128,0
9505,128,128,128,127,127,128,128,128,0
9509,127,128,127,124,127,125,127,127,0
9512,127,127,129,131,130,126,128,128,0
9516,127,128,126,128,129,128,127,129,0
9521,129,128,126,127,125,130,128,128,0
9525,127,127,126,126,123,125,126,127,0
9528,127,126,128,128,125,129,128,127,0
9531,129,129,127,128,129,128,127,128,0
9534,128,128,126,127,126,128,126,127,0
9538,128,127,130,128,129,126,126,126,0
9541,127,126,130,130,129,125,127,128,0
9544,129,128,127,128,127,128,127,128,0
9547,129,128,128,128,125,129,126,126,0
9550,127,128,129,126,122,128,127,125,0
9554,125,128,128,126,124,129,126,128,0
9557,129,128,127,129,128,127,126,128,0
9560,129,127,129,129,128,128,127,128,0
9563,126,128,126,127,126,125,126,127,0
9566,126,127,129,130,133,125,126,126,0
9569,130,128,127,128,127,127,127,128,0
9572,130,128,128,127,126,127,126,127,0
9575,125,126,127,125,125,129,127,126,0
9580,128,126,129,129,131,125,126,128,0
9584,123,128,130,128,128,128,128,129,0
9587,130,129,127,127,125,128,126,127,0
9590,128,127,129,126,123,127,127,124,0
9594,126,126,129,129,133,125,127,128,0
9597,126,128,127,128,126,128,128,129,0
9600,128,128,126,128,126,128,128,128,0
9603,127,128,127,125,125,128,128,125,0
9605,125,126,128,129,133,125,128,127,0
9609,125,128,127,128,126,128,128,129,0
9612,127,127,129,128,127,128,126,127,0
9617,129,127,128,127,124,128,127,127,0
9621,126,127,131,128,132,126,128,127,0
9625,128,127,127,128,127,128,127,128,0
9629,130,128,127,128,127,129,128,129,0
9632,129,128,127,127,123,128,127,127,0
9635,125,127,129,128,132,125,128,128,0
9638,128,127,128,126,129,129,129,129,0
9641,129,128,127,129,129,128,128,128,0
9645,130,128,128,127,123,127,126,127,0
9648,126,127,127,124,121,126,128,127,0
9651,127,128,128,128,129,128,127,129,0
9654,130,128,127,128,128,128,127,127,0
9657,128,128,128,126,127,128,128,126,0
9660,124,126,129,130,131,125,129,127,0
9664,127,127,129,130,124,129,129,129,0
9668,128,128,127,127,130,128,130,128,0
9672,128,128,126,127,127,130,128,128,0
9675,125,127,127,124,122,126,129,128,0
9679,129,127,128,130,124,129,126,128,0
9683,129,128,127,129,130,128,129,129,0
9686,129,128,126,126,124,125,127,126,0
9689,128,126,128,128,127,126,127,125,0
9692,125,127,128,127,125,130,127,128,0
9694,129,128,128,129,130,128,129,129,0
9697,128,128,124,127,125,128,128,126,0
9700,124,127,126,124,124,127,127,127,0
9705,129,126,131,130,131,125,127,129,0
9708,130,128,127,127,130,128,128,129,0
9713,128,127,126,126,127,129,128,127,0
9716,127,128,126,125,123,126,127,128,0
9719,129,127,130,130,133,125,129,129,0
9722,129,128,126,127,129,128,128,129,0
9726,130,128,129,128,127,126,125,125,0
9729,127,127,126,125,124,128,128,127,0
9732,127,127,130,131,133,126,127,128,0
9737,129,128,126,128,130,129,128,128,0
9740,129,128,127,127,125,129,125,127,0
9742,131,128,127,125,122,126,127,125,0
9745,126,127,127,126,124,129,127,128,0
9750,130,128,128,129,128,129,127,128,0
9755,129,127,127,128,126,129,126,127,0
9758,128,127,128,128,128,125,126,126,0
9762,129,127,131,130,134,125,125,128,0
9765,129,129,126,127,130,128,129,130,0
9768,127,128,128,127,129,128,128,127,0
9772,125,126,126,125,125,128,128,125,0
9775,127,127,130,130,132,125,125,126,0
9779,132,128,127,128,128,128,129,128,0
9783,128,129,127,128,127,128,126,127,0
9789,126,127,127,128,125,127,128,126,0
9792,128,126,131,130,132,126,127,126,0
9806,126,128,127,126,129,129,128,128,0
9801,128,128,126,127,130,129,128,129,0
9816,125,128,124,126,127,125,128,127,0
9820,128,126,129,129,131,126,126,125,0
9824,131,129,127,126,128,128,128,128,0
9827,130,128,126,128,126,128,127,127,0
9831,129,128,129,127,126,128,128,124,0
9834,122,126,127,124,125,129,129,127,0
9837,125,128,126,129,130,127,128,128,0
9841,128,128,127,129,128,128,127,128,0
9844,128,127,126,127,125,128,127,127,0
9847,125,126,130,129,132,125,127,126,0
9851,128,127,125,127,129,128,129,129,0
9855,128,129,127,128,131,128,129,128,0
9858,129,128,126,126,125,129,128,126,0
9861,125,124,131,128,131,125,127,127,0
9864,127,127,128,127,128,128,129,130,0
9867,129,129,125,129,130,128,129,128,0
9870,128,128,125,126,123,128,127,127,0
9872,124,127,127,127,131,125,127,128,0
9875,129,127,129,126,127,129,128,129,0
9878,128,128,126,127,128,129,127,129,0
9881,128,128,127,126,131,124,126,127,0
9885,126,128,128,125,122,125,127,127,0
9888,128,126,129,129,129,129,129,129,0
9892,128,129,127,128,128,128,127,129,0
9895,130,128,127,126,123,128,127,127,0
9899,127,127,129,129,132,126,128,127,0
9904,127,126,130,129,128,129,128,129,0
9910,130,128,128,129,128,128,128,128,0
9916,130,128,126,126,124,128,127,127,0
9920,126,126,129,128,125,126,127,127,0
9923,126,127,128,127,125,129,128,129,0
9927,130,129,127,129,130,129,129,129,0
9930,130,128,126,126,123,127,128,127,0
9933,130,127,127,124,123,128,128,125,0
9936,129,126,130,129,131,125,126,129,0
9939,129,128,127,128,130,129,128,129,0
9943,131,128,127,126,129,129,128,129,0
9946,127,128,127,126,123,125,126,127,0
9948,128,126,131,129,127,129,130,128,0
9952,128,128,127,127,129,129,128,128,0
9955,128,129,127,126,128,129,128,127,0
9959,125,127,127,126,122,128,128,125,0
9963,128,127,129,131,133,125,126,129,0
9966,129,128,127,128,128,128,127,129,0
9969,129,128,128,128,128,129,128,127,0
9972,123,128,126,127,124,128,128,123,0
9975,124,127,127,126,124,128,126,128,0
9978,128,128,127,128,127,128,129,129,0
9981,129,128,126,128,129,128,128,127,0
9985,128,127,127,126,125,125,128,126,0
9988,128,126,130,130,132,125,126,126,0
9990,131,129,127,127,130,128,128,129,0
9994,129,128,126,127,130,129,129,127,0
9997,127,127,125,125,125,128,128,124,0
10001,125,127,127,128,130,126,126,128,0
10004,129,128,125,128,130,128,129,129,0
10009,129,129,125,128,126,128,128,128,0
10014,128,128,127,126,122,127,128,127,0
10017,127,126,129,131,134,126,127,127,0
10021,128,128,126,127,129,129,128,128,0
10024,130,128,127,128,128,128,129,128,0
10027,127,128,125,125,126,129,128,125,0
10029,129,126,130,128,131,125,127,127,0
10033,122,128,127,128,127,128,127,129,0
10036,129,128,127,128,126,129,129,128,0
10038,129,128,127,125,126,125,127,125,0
10041,126,127,129,129,132,126,128,128,0
10044,127,127,126,129,128,129,128,128,0
10048,128,128,128,127,128,128,128,128,0
10051,128,128,126,127,123,128,127,127,0
10055,125,127,127,127,129,125,128,128,0
10058,127,126,128,128,127,128,127,128,0
10061,129,128,128,129,128,129,127,128,0
10064,127,129,126,127,125,128,127,126,0
10067,124,126,131,129,130,126,127,128,0
10070,128,127,127,127,125,129,127,129,0
10074,130,129,127,128,131,128,129,128,0
10077,128,129,126,126,126,128,128,126,0
10080,124,126,128,129,131,126,128,128,0
10082,126,127,127,127,128,128,127,129,0
10085,128,128,126,128,127,128,128,129,0
10088,128,128,125,127,126,128,128,128,0
10091,126,126,129,130,132,125,127,128,0
10094,128,127,127,128,125,128,127,128,0
10097,128,129,127,129,128,128,128,128,0
10105,129,128,128,127,125,128,126,126,0
10114,127,126,128,129,131,126,128,128,0
10123,128,127,129,128,128,129,127,128,0
10130,128,128,127,128,129,129,127,128,0
10134,129,128,129,126,126,129,126,126,0
10137,125,127,129,125,122,125,128,127,0
10140,127,128,128,126,125,128,129,129,0
10144,130,128,127,128,128,129,128,129,0
10147,127,129,125,126,124,127,127,128,0
10149,128,128,127,126,124,128,127,127,0
10152,129,127,130,129,131,125,128,129,0
10155,128,129,126,128,131,129,127,129,0
10159,128,129,125,126,129,128,128,128,0
10162,123,127,127,125,123,128,126,127,0
10165,126,127,129,130,132,125,125,128,0
10168,128,128,125,128,127,128,129,129,0
10172,128,128,128,128,125,129,126,127,0
10175,127,127,127,125,124,126,127,125,0
10178,124,127,127,126,127,129,128,129,0
10181,129,128,126,128,128,128,127,128,0
10185,130,128,129,128,126,128,126,127,0
10194,127,127,127,127,123,127,128,127,0
10198,129,126,131,130,133,125,125,128,0
10201,129,129,126,127,128,128,128,129,0
10205,126,128,128,127,128,128,127,126,0
10208,123,127,127,128,126,125,128,127,0
10212,128,126,128,128,132,125,126,129,0
10216,129,128,126,127,130,129,128,128,0
10219,129,127,126,127,130,129,127,127,0
10222,128,128,125,126,123,128,128,123,0
10225,125,127,127,125,125,128,128,127,0
10227,125,128,126,129,131,126,129,130,0
10233,129,129,127,128,126,129,128,128,0
10235,128,128,128,128,125,126,130,126,0
10239,127,126,130,129,131,125,127,128,0
10245,127,128,127,127,128,128,128,128,0
10249,127,129,128,127,128,128,127,127,0
10253,126,128,126,127,123,129,128,125,0
10258,121,127,131,128,132,125,129,127,0
10261,124,128,130,128,127,127,129,129,0
10264,129,129,126,128,125,128,129,129,0
10267,129,128,126,126,122,126,127,126,0
10270,125,127,130,129,132,125,127,127,0
10274,128,127,128,128,128,129,128,129,0
10278,127,128,127,129,127,128,127,127,0
10282,128,128,128,126,123,129,126,124,0
10285,123,126,131,130,131,126,128,127,0
10289,126,127,127,128,126,128,129,129,0
10292,128,128,127,127,126,128,126,128,0
10295,129,128,128,127,123,127,126,125,0
10299,128,127,128,129,129,126,127,127,0
10302,129,127,126,128,129,129,126,128,0
10306,130,128,126,128,130,128,129,128,0
10309,127,129,126,126,123,128,128,127,0
10312,126,127,128,124,122,128,128,127,0
10315,126,128,127,127,129,128,126,128,0
10318,128,128,126,128,130,128,127,129,0
10323,131,127,128,126,128,127,128,125,0
10326,125,127,130,130,138,125,127,128,0
10331,126,127,128,129,131,128,128,129,0
10335,128,128,128,127,129,128,127,129,0
10339,127,128,126,127,126,128,127,128,0
10342,125,127,126,125,122,125,127,126,0
10345,129,127,129,130,124,129,127,128,0
10348,130,128,128,127,129,128,127,128,0
10355,129,128,127,126,127,129,128,128,0
10359,127,127,127,125,123,127,126,125,0
10362,123,127,128,130,129,127,127,128,0
10371,129,128,128,129,131,128,127,129,0
10374,131,128,128,127,125,127,126,128,0
10377,127,128,127,126,123,125,130,127,0
10381,127,127,129,128,132,125,128,129,0
10383,129,129,126,128,129,129,127,128,0
10386,128,128,126,126,128,129,130,128,0
10389,124,128,126,125,125,126,128,127,0
10398,126,127,128,130,133,125,128,128,0
10405,128,128,128,129,129,130,128,129,0
10413,126,128,126,127,128,128,129,128,0
10417,127,127,126,127,122,128,127,126,0
10420,129,127,129,129,132,125,125,129,0
10425,127,129,126,128,130,128,127,128,0
10428,129,128,126,127,126,129,127,128,0
10432,131,128,127,125,121,127,127,124,0
10435,125,127,130,130,132,125,125,127,0
10439,129,128,126,128,128,128,127,128,0
10442,128,127,128,127,125,128,127,128,0
10445,132,127,128,128,124,128,127,126,0
10448,124,127,128,129,128,125,126,129,0
10451,130,128,127,128,127,128,127,128,0
10454,129,129,126,127,126,128,126,127,0
10458,127,128,128,126,123,127,128,126,0
10461,129,127,130,130,132,126,128,127,0
10465,123,128,128,129,127,128,128,128,0
10468,129,128,126,128,128,128,128,128,0
10470,129,128,129,128,125,128,126,126,0
10474,124,128,128,129,131,126,128,127,0
10478,123,128,128,128,128,128,129,128,0
10484,129,128,127,128,127,128,127,128,0
10488,127,127,127,127,125,128,126,124,0
10492,126,127,129,130,132,125,126,127,0
10495,125,129,127,127,127,128,128,129,0
10499,128,128,126,127,126,128,128,128,0
10502,129,128,127,126,123,129,128,125,0
10505,125,127,130,130,132,125,129,128,0
10508,127,127,127,128,130,128,129,128,0
10512,128,128,128,128,129,129,128,129,0
10514,129,128,127,126,123,128,127,124,0
10517,126,127,128,125,123,128,128,127,0
10520,126,127,128,129,129,129,128,129,0
10522,129,128,128,129,130,128,128,129,0
10526,128,127,126,127,125,128,127,127,0
10528,121,126,130,132,135,126,130,127,0
10531,128,126,128,126,125,129,128,129,0
10534,128,128,128,128,127,128,128,128,0
10537,128,129,126,126,123,127,128,127,0
10543,126,127,128,127,131,126,128,128,0
10547,127,127,129,126,126,129,128,128,0
10550,128,128,128,127,129,128,127,128,0
10553,129,128,128,126,127,127,126,127,0
10556,125,127,127,125,123,128,127,128,0
10560,125,128,127,127,125,127,125,129,0
10563,129,127,129,129,129,128,127,128,0
10565,128,127,128,127,126,128,126,127,0
10568,128,126,129,131,136,125,130,127,0
10571,128,126,129,130,129,127,128,127,0
10574,129,128,128,128,129,128,127,128,0
10577,129,128,127,126,126,128,126,128,0
10581,128,128,129,127,128,125,128,128,0
10585,128,127,127,130,125,129,128,129,0
10590,128,128,125,128,130,128,127,129,0
10594,129,127,128,127,125,128,125,125,0
10599,128,127,127,127,123,126,127,126,0
10602,127,126,128,129,131,126,127,129,0
10605,130,128,127,129,130,128,128,129,0
10608,129,128,126,128,126,128,128,128,0
10611,131,127,127,124,121,126,129,127,0
10614,127,127,129,129,129,125,129,129,0
10617,129,128,127,127,129,128,127,127,0
10619,126,128,126,128,128,129,128,127,0
10622,124,127,126,125,124,128,127,127,0
10625,128,127,131,131,129,124,128,129,0
10629,128,128,127,128,129,128,129,129,0
10633,128,128,126,127,128,129,129,128,0
10636,128,127,127,126,123,127,128,127,0
10639,128,126,130,130,130,126,127,127,0
10643,128,128,128,127,130,128,129,129,0
10646,126,128,127,127,125,128,126,126,0
10649,127,128,127,127,124,128,129,125,0
10652,125,127,128,129,133,125,127,125,0
10655,129,128,126,127,129,128,129,130,0
10660,130,128,128,127,128,128,128,126,0
10663,125,127,127,125,125,128,128,127,0
10666,127,127,129,129,132,126,128,127,0
10669,124,128,127,127,127,129,129,129,0
10672,128,128,127,126,129,129,128,127,0
10677,127,128,130,126,123,128,129,124,0
10680,125,125,130,129,131,125,130,127,0
10683,125,128,128,127,126,128,128,129,0
10685,129,128,127,127,130,129,129,129,0
10690,129,128,126,127,125,129,129,127,0
10696,124,125,129,130,133,125,129,127,0
10699,128,127,128,127,126,128,129,129,0
10701,128,128,128,129,129,128,130,128,0
10707,128,129,126,126,126,128,128,126,0
10717,125,127,129,130,132,126,127,128,0
10721,129,127,127,127,126,128,128,129,0
10725,129,129,126,127,127,129,127,128,0
10728,128,128,127,127,125,129,127,126,0
10732,125,128,128,129,131,126,128,128,0
10735,127,127,126,127,129,129,128,129,0
10739,128,128,127,128,129,128,128,129,0
10742,128,129,126,127,127,128,127,126,0
10745,125,128,128,127,132,126,126,128,0
10748,128,127,130,130,125,129,128,129,0
10752,129,129,127,127,130,129,127,129,0
10760,128,128,126,125,128,128,127,126,0
10765,126,127,128,124,123,127,126,127,0
10768,127,127,128,127,129,128,127,128,0
10772,129,128,128,128,130,128,128,128,0
10776,127,128,125,127,127,128,125,128,0
10825,126,127,129,131,136,125,126,127,0
10831,126,126,130,130,125,129,124,128,0
10837,129,128,127,127,126,128,124,128,0
10841,130,128,128,126,125,128,125,125,0
10846,126,128,127,124,121,128,125,126,0
10905,129,128,126,127,128,129,127,128,0
10894,129,127,128,129,128,128,126,128,0
10914,128,128,126,127,126,129,128,128,0
10977,128,129,127,128,130,128,128,129,0
10961,124,127,126,124,124,125,127,126,0
10972,127,127,128,130,125,129,129,129,0
10982,129,128,127,127,126,129,126,126,0
10989,126,127,128,125,124,123,128,127,0
11030,128,127,132,129,131,125,128,128,0
11041,128,128,126,127,130,128,128,129,0
11057,127,128,126,128,128,128,127,128,0
11067,128,128,127,126,125,128,128,127,0
11074,128,126,130,130,130,125,129,128,0
11080,128,128,126,128,131,128,127,129,0
11086,127,128,128,129,128,130,127,127,0
11091,126,128,126,127,126,127,126,124,0
11095,125,126,130,130,132,125,127,128,0
11098,127,128,126,127,129,127,127,129,0
11101,127,127,127,128,130,128,128,127,0
11105,124,127,127,125,126,127,128,127,0
11108,127,127,129,129,131,125,126,126,0
11111,129,129,126,127,130,129,128,129,0
11114,127,129,126,128,129,128,128,127,0
11118,126,128,129,125,124,127,126,125,0
11121,124,127,127,126,125,129,127,129,0
11124,129,129,126,128,128,128,127,129,0
11127,128,128,126,128,129,128,126,128,0
11131,128,128,127,127,124,125,127,126,0
11135,131,126,130,131,138,125,127,127,0
11138,122,128,127,129,129,128,128,128,0
11142,130,128,126,127,130,128,129,128,0
11146,127,128,125,125,125,129,127,127,0
11149,125,127,129,130,132,125,128,127,0
11156,125,128,127,127,127,128,129,128,0
11161,126,129,127,128,129,128,128,128,0
11164,127,128,125,127,127,128,127,124,0
11167,126,126,130,129,131,126,128,128,0
11171,129,126,127,127,126,128,128,129,0
11174,126,128,127,129,129,129,128,129,0
11177,129,127,126,125,125,128,126,125,0
11180,121,127,127,130,129,125,127,127,0
11184,128,127,127,127,127,129,129,129,0
11187,129,128,126,129,130,128,128,129,0
11190,129,128,127,126,122,128,127,126,0
11193,121,127,127,125,123,125,128,128,0
11197,127,128,127,127,129,129,128,129,0
11202,129,129,126,128,128,128,128,129,0
11205,129,129,127,127,126,125,126,126,0
11208,128,124,130,130,130,125,127,127,0
11211,130,127,129,129,125,129,128,129,0
11214,129,129,127,127,130,128,127,128,0
11218,130,128,127,127,125,128,126,127,0
11222,126,128,128,124,124,128,128,127,0
11226,125,127,126,128,129,129,129,129,0
11228,128,128,127,129,130,129,129,129,0
11232,128,128,126,128,127,128,128,125,0
11235,125,128,129,130,134,125,128,127,0
11238,132,126,129,131,130,128,127,128,0
11242,130,128,128,127,129,128,128,128,0
11246,128,128,126,126,127,129,128,127,0
11250,127,125,127,127,121,126,127,128,0
11255,127,127,131,130,124,129,128,129,0
11302,129,128,127,127,129,128,128,129,0
11313,130,128,128,128,124,129,127,128,0
11318,128,127,127,124,121,125,126,126,0
11323,129,127,130,129,130,125,128,130,0
11327,128,128,127,128,129,128,127,127,0
11332,126,129,127,127,125,128,127,126,0
11335,129,128,130,125,122,126,129,126,0
11339,130,127,128,129,128,127,127,129,0
11343,130,129,128,127,129,129,128,129,0
11348,129,128,126,127,125,129,128,128,0
11351,129,128,127,127,124,127,128,127,0
11356,127,127,130,131,134,126,127,128,0
11359,127,128,127,128,131,129,128,129,0
11362,127,128,127,128,127,129,127,127,0
11366,127,127,127,128,124,128,127,126,0
11369,128,127,130,130,132,126,127,129,0
11373,128,129,127,128,129,128,128,129,0
11376,128,128,126,128,127,129,127,127,0
11379,128,127,130,126,125,127,128,127,0
11383,123,126,128,129,132,126,126,126,0
11386,129,128,128,128,129,128,128,129,0
11389,126,128,126,128,129,129,128,128,0
11392,128,128,127,127,125,127,126,126,0
11396,127,127,130,130,130,126,128,126,0
11399,127,128,127,126,129,129,128,128,0
11402,128,128,128,128,127,129,126,128,0
11406,125,127,127,126,126,129,127,127,0
11409,124,127,128,125,126,128,127,127,0
11412,125,128,126,128,131,128,127,128,0
11416,127,128,127,128,130,128,127,128,0
11420,127,127,127,127,125,127,126,126,0
11428,128,127,130,130,132,126,126,128,0
11432,127,127,129,127,128,128,128,128,0
11436,128,129,126,127,129,129,126,128,0
11439,129,128,126,126,124,127,126,126,0
11442,124,127,130,130,130,126,127,128,0
11446,128,127,127,126,131,128,127,128,0
11449,128,128,126,128,128,128,128,128,0
11452,128,128,126,126,124,127,127,128,0
11455,125,127,129,130,132,125,128,127,0
11458,127,125,130,126,129,129,128,129,0
11461,130,128,127,129,131,128,127,128,0
11464,127,127,127,126,127,128,127,126,0
11466,126,127,127,127,128,125,127,127,0
11470,125,125,128,127,126,129,126,128,0
11500,129,129,128,128,126,128,128,129,0
11505,128,128,126,126,123,127,127,128,0
11509,125,127,131,130,130,126,127,127,0
11513,127,127,128,127,126,129,127,128,0
11516,128,128,127,128,130,128,127,128,0
11570,129,128,126,128,128,129,130,125,0
11581,125,125,130,131,131,126,128,127,0
11591,128,127,128,126,129,129,128,129,0
11596,128,128,127,127,129,128,128,128,0
11601,129,128,127,128,125,130,127,126,0
11606,123,127,127,125,121,125,127,128,0
11616,128,129,128,128,127,128,127,129,0
11611,127,127,130,130,126,129,128,129,0
11621,129,128,128,126,128,129,129,127,0
11627,122,127,128,125,124,124,128,127,0
11631,126,126,129,129,124,130,128,129,0
11634,129,128,126,128,128,128,128,130,0
11637,128,128,125,128,126,128,126,126,0
11640,127,128,128,125,125,124,127,126,0
11644,123,127,127,127,126,129,128,129,0
11650,128,128,128,130,130,127,129,129,0
11654,128,128,125,128,127,129,126,126,0
11659,126,127,128,127,123,126,127,127,0
11663,132,126,130,129,133,125,126,129,0
11666,129,129,127,127,128,129,127,129,0
11669,128,127,127,128,129,127,127,126,0
11673,125,127,130,124,124,127,127,127,0
11676,129,127,132,129,132,126,125,129,0
11680,129,128,126,128,129,129,128,129,0
11683,129,128,128,126,132,128,126,126,0
11686,128,127,128,124,125,129,128,125,0
11689,125,127,127,126,123,129,127,128,0
11693,130,128,128,128,127,128,126,128,0
11696,128,128,126,127,127,127,128,128,0
11699,129,127,127,127,126,124,127,127,0
11702,129,126,129,129,131,125,128,128,0
11705,129,128,128,127,128,129,128,129,0
11709,130,128,126,127,126,129,127,128,0
11712,128,128,128,127,124,128,127,126,0
11715,123,126,130,129,132,125,128,128,0
11722,128,128,126,127,130,129,128,129,0
11725,128,128,126,128,129,129,128,129,0
11729,129,128,128,127,124,129,128,125,0
11734,124,127,127,124,125,126,127,128,0
11741,128,128,129,128,129,128,128,128,0
11745,128,127,127,129,130,128,128,128,0
11748,125,128,126,126,126,128,127,127,0
11751,128,127,129,130,132,125,127,127,0
11755,128,127,127,127,126,128,128,128,0
11758,129,128,127,128,129,128,127,128,0
11762,130,128,130,128,125,128,128,127,0
11765,123,126,129,128,131,126,128,128,0
11768,128,127,127,128,127,129,128,129,0
11772,129,128,126,128,126,129,127,129,0
11775,129,128,126,126,123,126,127,127,0
11778,124,128,127,124,123,128,128,127,0
11781,129,127,126,128,127,129,127,129,0
11785,130,129,127,128,127,128,128,129,0
11788,128,127,127,128,127,127,126,125,0
11792,125,126,129,129,136,126,128,127,0
11796,128,126,128,127,127,129,128,129,0
11799,128,128,126,128,128,128,128,128,0
11805,128,128,127,126,127,128,126,127,0
11808,127,127,128,128,134,125,127,127,0
11810,128,127,130,129,125,129,127,129,0
11815,128,128,127,129,128,128,126,128,0
11819,127,128,127,126,128,130,127,127,0
11822,127,128,127,127,125,127,127,127,0
11825,129,125,130,129,125,128,128,129,0
11829,128,128,127,129,128,128,129,129,0
11832,128,128,127,127,125,128,130,126,0
11836,127,128,127,124,127,125,128,127,0
11839,128,127,129,130,127,128,128,128,0
11844,128,128,127,129,127,128,127,128,0
11848,128,128,126,126,126,129,129,128,0
11854,130,127,128,129,132,125,127,126,0
11859,127,127,129,128,123,129,128,128,0
11862,128,129,127,128,128,128,127,129,0
11866,128,128,127,126,127,129,128,128,0
11868,127,127,127,125,123,127,128,125,0
11872,122,126,127,127,125,128,126,127,0
11875,128,128,128,129,131,129,128,129,0
11878,127,128,126,128,125,127,127,127,0
11881,124,128,127,127,125,125,128,127,0
11884,128,126,129,130,135,125,125,126,0
11887,129,128,127,128,127,128,128,128,0
11890,129,128,127,129,128,129,127,126,0
11894,124,127,127,128,123,128,127,126,0
11897,125,128,129,130,133,125,127,127,0
11901,125,128,126,127,130,129,128,129,0
11906,128,128,125,127,129,129,129,127,0
11909,124,127,127,126,123,128,128,125,0
11914,128,127,130,130,133,126,127,126,0
11917,129,128,126,127,131,127,127,128,0
11921,129,129,127,127,128,129,128,127,0
11924,128,129,126,126,125,128,128,127,0
11927,128,126,130,130,131,125,126,125,0
11931,129,128,126,127,128,129,129,129,0
11934,128,128,126,126,127,128,128,128,0
11937,129,128,125,126,126,128,128,126,0
11941,121,128,127,124,124,128,128,128,0
11945,129,129,126,129,130,126,128,129,0
11948,127,128,128,129,130,128,128,127,0
11956,126,127,127,127,125,129,128,126,0
11961,128,126,129,129,130,126,126,128,0
11966,130,127,128,127,128,129,128,129,0
11973,127,128,128,128,129,129,129,129,0
11978,128,127,128,127,126,126,126,126,0
11981,126,126,129,128,130,126,129,128,0
11985,128,127,127,127,127,129,128,129,0
11988,128,129,127,128,127,129,128,128,0
11991,129,128,128,128,125,126,126,126,0
11994,127,127,128,127,129,125,127,128,0
11998,129,127,128,126,129,130,128,129,0
12001,129,128,128,129,130,128,128,128,0
12004,128,128,127,126,126,129,129,123,0
12007,124,126,129,128,132,125,129,127,0
12011,127,125,128,128,127,129,127,129,0
12015,130,128,128,128,127,128,126,128,0
12018,129,127,127,126,127,129,129,128,0
12021,126,126,129,129,130,125,128,128,0
12025,129,126,128,127,126,129,128,128,0
12027,129,128,127,129,127,128,127,128,0
12030,128,127,126,126,127,129,129,128,0
12033,123,127,127,124,123,128,127,127,0
12037,126,128,127,127,126,128,127,128,0
12040,127,127,127,129,130,128,126,129,0
12043,128,128,127,128,124,128,126,126,0
12046,130,126,128,129,129,125,126,127,0
12049,129,126,129,130,129,126,128,129,0
12052,130,128,125,129,128,128,127,129,0
12055,131,128,128,127,125,128,127,126,0
12059,125,127,127,125,122,128,127,125,0
12063,125,127,128,131,129,126,126,129,0
12069,128,128,126,129,131,129,128,129,0
12076,129,128,126,127,127,129,128,128,0
12079,123,127,126,127,132,126,127,127,0
12085,127,126,130,130,131,125,129,128,0
12090,128,128,126,128,130,128,128,128,0
12096,127,128,126,128,129,129,129,128,0
12099,126,128,127,126,124,128,127,127,0
12102,125,126,129,129,130,125,127,128,0
12105,129,128,126,129,129,129,128,128,0
12108,128,128,128,128,129,129,128,126,0
12112,126,128,127,126,123,127,130,127,0
12115,129,126,129,130,134,125,126,129,0
12119,130,129,126,128,130,128,127,128,0
12122,130,128,126,127,125,129,129,128,0
12125,128,128,126,127,125,129,128,125,0
12128,126,126,130,129,131,126,127,125,0
12132,130,128,127,127,127,127,126,129,0
12136,129,128,127,127,128,129,127,127,0
12139,126,127,127,129,127,125,127,126,0
12143,126,127,128,129,132,126,126,126,0
12146,129,128,128,126,128,128,129,129,0
12149,128,128,126,127,127,129,128,128,0
12153,128,128,126,127,124,129,127,125,0
12156,125,128,127,126,124,129,128,127,0
12160,127,127,127,129,129,128,128,128,0
12164,127,129,127,129,130,127,128,128,0
12167,128,127,129,130,128,125,126,126,0
12170,127,126,128,129,132,125,128,126,0
12173,127,128,126,127,127,128,128,129,0
12176,128,128,126,127,127,128,129,128,0
12178,128,129,125,125,124,128,129,126,0
12181,126,126,129,129,133,125,128,126,0
12186,125,127,128,127,127,128,127,128,0
12192,127,128,127,128,129,128,128,128,0
12198,128,129,127,126,126,128,128,126,0
12201,125,126,128,129,131,126,126,127,0
12204,129,128,127,126,128,128,126,128,0
12207,127,128,128,128,128,128,128,128,0
12210,129,128,127,127,123,126,126,127,0
12213,120,127,127,124,124,125,128,128,0
12219,123,128,126,127,127,128,128,129,0
12223,128,129,126,128,131,128,128,129,0
12226,129,129,127,127,123,126,126,126,0
12228,127,127,130,131,136,125,128,127,0
12231,128,127,130,128,129,129,129,129,0
12235,129,129,127,129,131,128,129,129,0
12238,127,128,126,127,125,128,128,127,0
12241,127,127,128,125,122,128,127,127,0
12243,126,128,128,128,126,129,126,128,0
12246,129,127,128,128,128,127,128,129,0
12249,130,128,127,127,125,129,127,126,0
12258,124,127,128,128,134,125,128,127,0
12263,127,127,130,129,130,127,128,128,0
12266,129,128,128,128,128,129,127,128,0
12270,129,128,127,127,125,128,126,126,0
12273,124,127,127,126,126,125,129,128,0
12276,128,127,128,130,127,128,127,128,0
12279,129,129,126,128,127,128,126,128,0
12283,129,127,129,128,127,128,126,125,0
12287,128,126,128,129,128,126,127,127,0
12290,129,126,131,129,128,128,128,129,0
12295,127,128,127,128,127,129,127,128,0
12298,128,128,128,128,125,129,127,126,0
12300,126,127,127,125,124,126,128,127,0
12305,128,126,128,129,128,126,127,128,0
12309,129,128,126,129,130,128,127,129,0
12313,128,128,126,127,129,128,128,128,0
12316,129,128,127,125,122,127,128,125,0
12319,129,127,130,129,133,125,126,129,0
12321,129,128,126,129,130,128,127,128,0
12324,129,128,127,127,126,129,127,128,0
12328,128,127,126,125,124,127,127,125,0
12331,128,126,131,130,132,126,126,130,0
12335,128,128,126,128,130,128,127,129,0
12338,130,128,126,126,128,128,129,128,0
12342,126,127,126,125,125,128,128,125,0
12345,125,127,131,130,131,126,125,126,0
12348,130,128,128,129,128,128,128,129,0
12353,129,128,127,128,127,128,126,128,0
12357,127,127,126,125,126,128,127,126,0
12361,126,127,127,127,125,128,128,129,0
12366,129,129,128,128,130,128,127,128,0
12368,127,129,129,129,129,128,127,128,0
12371,127,128,128,127,127,123,127,127,0
12375,128,127,129,129,131,126,128,128,0
12378,128,125,128,127,127,128,128,128,0
12382,130,128,126,127,127,129,129,128,0
12385,128,127,126,126,123,127,126,127,0
12388,126,126,130,130,133,125,127,128,0
12391,128,127,126,126,129,129,128,129,0
12393,130,127,127,128,129,129,128,128,0
12396,129,128,127,126,123,128,127,126,0
12400,125,127,127,125,123,127,126,127,0
12402,128,128,128,128,128,128,128,129,0
12407,131,128,128,128,129,129,127,128,0
12414,129,128,130,128,125,126,126,125,0
12417,125,127,129,130,138,124,129,128,0
12420,128,126,129,127,126,128,128,129,0
12423,127,128,128,129,130,129,127,128,0
12426,129,128,127,125,126,129,128,123,0
12428,125,127,129,129,130,126,127,126,0
12431,128,128,128,126,128,128,128,128,0
12434,129,129,126,129,128,129,128,128,0
12438,129,128,124,127,124,127,126,124,0
12442,124,127,131,129,130,126,128,128,0
12445,128,127,127,128,126,129,128,128,0
12448,127,128,127,127,130,129,129,128,0
12451,127,128,126,128,128,129,128,127,0
12455,121,127,127,127,123,128,127,126,0
12458,126,128,127,128,128,128,126,129,0
12465,130,128,127,127,125,127,126,125,0
12462,129,128,127,127,129,128,127,128,0
12468,122,127,128,125,127,126,130,127,0
12472,127,127,130,129,125,130,129,128,0
12476,128,128,128,128,127,128,126,128,0
12479,130,129,128,128,125,128,126,127,0
12483,126,127,129,129,126,125,127,126,0
12485,126,127,129,130,125,131,129,128,0
12489,128,128,127,126,129,128,126,128,0
12492,129,128,125,127,127,129,127,129,0
12496,126,128,130,127,125,127,128,125,0
12501,121,127,127,127,126,129,127,129,0
12505,129,128,128,127,130,128,129,129,0
12508,128,128,126,127,124,127,128,128,0
12512,126,126,129,128,133,126,127,126,0
12519,127,127,129,129,132,126,128,129,0
12525,128,128,126,126,130,129,128,129,0
12528,128,129,126,126,128,129,128,128,0
12531,127,128,126,126,127,126,127,127,0
12535,127,127,130,130,129,125,130,129,0
12538,127,128,126,128,129,128,129,129,0
12542,127,128,126,126,125,128,128,127,0
12545,128,127,126,126,124,128,129,125,0
12548,129,126,129,129,130,125,127,128,0
12555,128,128,127,127,128,128,128,128,0
12558,129,129,126,128,129,129,129,128,0
12562,126,128,126,126,124,129,126,125,0
12568,124,127,127,126,125,128,128,126,0
12572,128,128,126,128,130,128,127,129,0
12575,128,128,128,129,130,128,128,128,0
12579,123,127,127,126,126,127,127,126,0
12582,128,127,130,130,134,126,127,127,0
12585,123,128,128,129,127,128,127,129,0
12589,128,128,126,129,130,129,129,128,0
12593,126,127,126,125,126,128,127,125,0
12595,123,127,129,129,132,125,127,128,0
12598,127,127,125,128,128,127,128,129,0
12601,129,128,127,127,128,128,128,128,0
12604,128,128,127,126,123,128,128,127,0
12608,123,127,128,128,129,126,127,128,0
12613,128,127,127,127,129,129,128,129,0
12616,128,129,126,128,130,128,127,128,0
12619,128,127,127,127,125,128,127,126,0
12622,122,127,129,130,133,126,128,127,0
12625,128,127,127,126,129,129,128,130,0
12630,128,128,127,126,126,128,128,129,0
12634,130,128,126,127,125,129,127,127,0
12641,126,127,127,125,122,127,127,128,0
12645,130,128,130,127,129,127,127,129,0
12648,128,127,129,129,127,128,126,128,0
12651,129,128,129,127,126,125,125,126,0
12655,129,126,129,129,129,126,127,127,0
12658,127,127,127,126,128,130,129,129,0
12661,129,128,126,128,129,128,128,128,0
12665,128,128,125,127,128,127,128,126,0
12668,126,125,128,129,133,126,128,127,0
12671,128,127,130,129,125,129,128,129,0
12675,128,128,126,128,128,129,127,128,0
12678,130,128,128,128,127,128,129,128,0
12681,120,127,128,128,130,126,127,127,0
12685,129,127,129,129,126,129,128,128,0
12688,127,128,127,128,128,128,128,128,0
12691,128,128,126,126,124,128,126,128,0
12693,130,128,127,124,122,126,127,124,0
12696,126,128,127,126,128,129,127,128,0
12699,127,129,126,129,130,128,126,128,0
12702,130,128,127,127,125,127,126,127,0
12705,128,127,127,126,124,125,127,126,0
12708,128,126,131,130,132,123,128,129,0
12714,130,128,127,127,125,128,125,126,0
12711,128,128,125,129,131,129,127,128,0
12718,128,128,128,125,124,125,126,127,0
12722,127,126,129,130,133,125,128,128,0
12725,128,128,127,128,128,128,128,128,0
12729,129,128,127,127,127,128,128,128,0
12732,129,127,126,126,124,128,128,126,0
12737,128,126,128,131,133,126,126,129,0
12741,127,128,128,127,130,128,128,129,0
12748,128,128,126,127,127,128,128,128,0
12752,128,128,126,126,124,128,127,126,0
12755,127,126,130,130,131,126,126,129,0
12758,127,128,126,128,129,128,128,128,0
12761,130,128,126,127,128,129,129,128,0
12764,128,128,128,128,125,128,127,126,0
