Start Recording
39,129,125,128,128,129,129,130,128,0
45,127,128,128,125,126,129,130,128,0
50,127,128,129,129,127,127,128,128,0
55,129,126,130,126,125,128,128,128,0
59,127,128,127,129,126,126,128,128,0
63,126,128,127,128,128,128,128,128,0
66,127,128,127,128,125,126,127,127,0
70,127,128,127,129,128,127,125,126,0
73,129,127,128,133,125,127,125,126,0
76,128,128,127,130,129,130,129,128,0
80,126,127,127,129,130,128,129,128,0
83,127,126,127,128,126,127,128,128,0
87,127,127,128,128,128,129,128,128,0
90,128,128,127,131,128,128,127,128,0
93,127,128,127,128,127,125,128,128,0
96,127,127,129,131,128,128,123,126,0
100,130,127,127,132,127,128,126,128,0
103,126,128,127,127,128,129,128,128,0
107,127,128,127,127,129,127,129,128,0
111,126,127,128,124,128,128,129,128,0
114,126,128,128,124,128,129,129,127,0
117,127,128,128,125,128,129,128,128,0
120,126,128,127,127,128,124,127,127,0
123,129,127,127,129,128,127,123,126,0
126,129,126,128,130,128,125,129,128,0
129,126,128,129,127,131,128,129,127,0
132,128,128,127,127,129,128,129,128,0
135,127,126,126,126,132,127,129,128,0
138,129,128,127,124,128,128,128,127,0
142,127,127,128,126,127,128,128,128,0
148,127,128,128,125,128,127,128,127,0
151,127,128,129,125,127,124,124,127,0
154,128,127,128,128,126,127,124,127,0
157,126,128,128,127,128,128,128,128,0
160,127,128,127,127,127,128,129,129,0
163,127,127,128,126,129,128,129,127,0
166,128,127,126,130,127,127,125,127,0
169,129,127,128,125,129,128,128,128,0
172,127,128,128,128,129,129,130,129,0
175,127,128,128,125,129,126,128,128,0
179,127,128,128,126,129,127,129,128,0
182,126,128,127,128,127,127,127,127,0
185,128,128,127,128,129,127,127,127,0
189,128,127,127,127,127,127,126,127,0
192,129,127,128,130,129,129,123,126,0
195,129,126,127,128,131,130,131,129,0
200,127,127,127,126,130,129,129,128,0
203,127,127,128,127,130,128,130,128,0
207,127,127,127,127,127,128,128,128,0
211,128,128,127,126,128,129,127,128,0
214,128,128,127,128,129,129,128,129,0
219,127,126,127,126,128,127,126,126,0
222,128,126,127,130,126,127,125,126,0
225,129,127,126,130,125,129,129,128,0
229,127,129,127,126,129,129,127,128,0
232,126,128,127,127,127,128,129,128,0
235,128,128,130,127,127,126,126,128,0
239,127,129,127,128,127,129,128,128,0
243,128,129,128,128,129,129,129,128,0
248,127,127,127,127,126,128,127,128,0
252,127,127,127,131,128,128,123,125,0
255,129,127,128,132,128,129,130,128,0
258,127,128,129,128,127,128,129,128,0
260,127,128,127,128,131,126,130,128,0
263,126,127,127,126,129,125,130,127,0
266,126,127,128,128,129,129,128,128,0
269,127,128,127,129,127,128,128,127,0
271,127,128,127,126,126,127,124,127,0
275,129,126,127,131,128,128,123,126,0
279,131,127,127,128,128,131,130,128,0
282,127,128,127,128,128,129,130,128,0
286,126,128,127,128,128,127,129,128,0
289,129,128,128,125,127,126,129,128,0
292,126,128,127,126,127,127,128,128,0
295,127,128,127,128,127,127,128,127,0
299,127,128,127,126,127,128,129,129,0
302,127,127,128,126,125,128,128,127,0
305,127,127,127,128,128,128,128,128,0
308,127,128,129,129,126,128,127,127,0
311,127,128,129,129,126,127,122,125,0
314,130,126,127,130,128,128,123,126,0
317,130,127,128,130,128,125,129,128,0
322,127,128,129,128,129,128,128,128,0
325,127,127,129,127,128,127,128,128,0
328,127,126,127,128,129,126,128,128,0
331,126,128,129,128,131,128,128,127,0
335,128,128,127,127,128,128,129,128,0
338,127,128,128,127,127,128,129,128,0
344,127,127,129,126,127,127,126,127,0
347,127,128,128,129,127,129,128,127,0
350,128,128,127,126,129,128,128,127,0
353,128,128,128,128,128,127,127,128,0
359,126,127,127,130,128,127,122,125,0
362,130,126,127,129,126,126,128,128,0
366,128,128,126,128,128,128,128,128,0
369,128,129,127,127,128,128,128,127,0
372,127,128,127,126,128,127,128,128,0
375,127,127,127,126,128,126,128,128,0
377,126,128,127,128,126,128,128,128,0
380,127,128,127,127,127,128,129,128,0
383,126,127,127,126,128,126,128,128,0
386,127,127,128,127,125,124,129,128,0
389,127,129,128,128,126,127,128,128,0
393,128,128,128,127,127,127,126,127,0
396,127,127,127,126,127,127,123,126,0
399,130,127,127,129,129,129,124,126,0
403,129,127,127,128,122,130,130,128,0
406,127,128,127,126,128,128,129,127,0
409,126,128,129,128,128,126,127,128,0
413,126,127,127,126,127,128,128,128,0
416,128,127,127,126,128,128,129,128,0
419,127,128,127,126,128,128,129,128,0
422,126,127,127,126,128,127,129,128,0
425,126,127,127,131,128,126,122,126,0
428,129,127,127,130,125,127,129,128,0
433,128,128,128,125,129,128,128,128,0
439,126,128,127,128,128,127,129,129,0
442,126,127,129,128,129,128,129,129,0
444,126,128,127,126,129,129,128,128,0
447,127,128,128,128,128,128,127,128,0
451,127,128,128,128,126,126,124,126,0
454,130,127,127,130,128,129,124,126,0
456,129,127,127,125,129,129,129,128,0
459,126,128,127,125,128,129,129,128,0
462,126,129,129,125,128,127,130,129,0
465,127,128,128,126,127,127,129,128,0
469,127,128,127,127,128,127,128,127,0
471,128,128,127,129,127,128,129,127,0
474,127,128,127,127,128,127,129,128,0
478,126,127,128,126,126,125,128,127,0
481,127,127,128,129,126,126,128,128,0
484,127,128,128,129,127,128,128,127,0
487,128,128,128,128,124,125,123,125,0
490,130,126,127,131,130,128,124,125,0
494,131,127,127,131,126,125,130,129,0
496,130,128,126,126,128,128,129,128,0
499,126,128,127,128,129,128,129,128,0
502,127,128,129,129,128,127,128,128,0
505,129,126,128,126,127,128,128,127,0
509,128,128,128,128,128,129,127,129,0
512,127,128,127,127,128,128,128,128,0
516,126,128,128,129,126,126,128,128,0
519,126,127,129,129,129,128,128,127,0
522,127,129,128,130,128,129,128,128,0
527,127,128,128,130,127,127,128,127,0
531,127,127,128,133,126,128,124,126,0
534,130,127,127,132,127,127,125,127,0
536,127,129,127,128,129,129,129,128,0
539,128,128,127,128,128,127,129,127,0
542,126,129,129,128,129,127,129,128,0
545,126,128,129,127,130,129,128,128,0
549,128,128,127,129,129,128,128,128,0
552,128,128,128,127,129,127,127,128,0
556,127,127,128,127,123,126,122,125,0
559,130,126,127,131,128,128,124,127,0
562,127,126,128,126,128,129,128,128,0
566,126,128,127,126,127,129,128,128,0
569,127,128,127,124,127,127,128,127,0
572,126,126,128,124,128,129,128,128,0
574,127,128,128,125,127,128,128,128,0
577,127,128,128,126,128,128,128,128,0
581,127,128,128,126,123,126,128,128,0
584,127,126,127,129,127,128,123,126,0
588,129,127,127,127,128,129,129,128,0
592,127,128,128,126,126,128,129,128,0
595,127,128,129,127,127,126,128,128,0
598,128,128,127,125,124,127,128,128,0
601,127,128,126,126,127,128,128,127,0
604,127,128,126,126,127,127,128,128,0
606,127,127,127,126,127,128,128,128,0
609,126,127,128,126,126,124,129,128,0
613,127,127,127,126,127,127,128,129,0
618,128,128,127,127,127,127,128,128,0
623,127,127,127,129,129,128,123,126,0
628,129,126,127,130,128,128,124,126,0
631,129,127,128,124,130,129,129,128,0
634,126,128,128,125,129,129,130,128,0
637,127,128,127,127,128,127,129,127,0
640,127,127,128,124,128,127,128,127,0
643,128,128,127,126,128,129,128,128,0
646,127,128,127,125,129,128,128,128,0
649,126,128,127,127,127,126,127,128,0
651,127,127,128,127,127,127,126,127,0
655,131,128,127,132,126,128,125,125,0
658,127,128,128,128,130,130,129,127,0
661,127,128,128,127,129,127,127,127,0
664,127,128,130,127,128,128,129,128,0
667,126,128,128,127,127,126,129,127,0
671,127,128,128,128,127,128,128,128,0
674,127,128,127,127,123,127,128,127,0
677,130,127,128,130,127,128,122,126,0
680,130,127,127,130,125,126,129,128,0
683,128,128,129,129,131,129,129,128,0
686,128,128,129,127,129,127,129,128,0
689,127,128,129,125,128,127,128,128,0
692,130,128,129,126,126,127,128,128,0
695,127,127,127,128,126,127,128,128,0
698,127,128,127,128,126,125,127,127,0
701,127,127,128,128,126,124,128,128,0
704,128,127,131,128,127,127,128,128,0
706,128,128,128,128,129,128,127,127,0
711,126,127,128,127,127,127,128,127,0
717,126,127,128,127,127,128,123,126,0
720,129,126,127,130,128,128,124,126,0
723,127,129,128,125,128,130,128,128,0
726,127,128,127,128,128,129,128,128,0
729,127,127,127,125,128,126,128,128,0
732,127,127,128,126,128,128,128,128,0
735,127,127,126,128,129,129,128,128,0
737,127,128,127,127,128,126,128,127,0
741,127,127,129,130,128,127,122,125,0
744,131,126,127,131,128,129,125,127,0
747,128,128,128,126,128,129,129,128,0
750,128,129,126,127,127,128,128,128,0
753,127,128,127,126,128,128,129,128,0
757,126,128,127,128,125,126,128,128,0
760,129,128,127,128,127,129,129,128,0
763,127,128,126,128,128,128,129,127,0
766,127,127,127,127,122,126,127,128,0
769,127,128,128,128,125,126,128,128,0
773,128,128,128,129,128,128,128,129,0
776,128,128,127,128,127,127,128,128,0
779,127,126,127,130,127,127,123,126,0
782,129,127,127,130,128,127,123,126,0
785,129,127,129,125,128,128,129,128,0
788,128,128,127,127,128,129,129,128,0
791,128,128,128,124,128,125,128,128,0
794,127,128,128,126,128,125,129,128,0
796,127,128,128,127,127,128,128,128,0
800,128,128,129,128,128,129,128,128,0
806,128,128,128,126,128,127,127,127,0
810,129,127,127,130,127,128,124,126,0
813,130,126,127,127,129,129,128,128,0
815,127,128,129,126,127,128,129,128,0
820,126,127,127,128,127,128,128,127,0
823,127,128,129,127,126,128,129,128,0
826,127,127,127,128,128,128,127,128,0
829,128,129,128,129,129,128,127,127,0
832,127,128,127,127,126,127,126,127,0
835,127,127,128,127,122,127,122,126,0
840,129,128,127,130,128,127,128,128,0
843,128,128,127,127,129,128,129,128,0
847,126,127,126,125,129,128,129,128,0
850,127,127,127,125,128,127,128,127,0
854,130,126,127,126,128,128,128,128,0
857,127,127,129,128,128,127,128,128,0
860,128,127,129,128,129,124,124,126,0
863,129,127,128,131,128,127,124,126,0
867,131,127,127,129,128,128,129,128,0
870,128,128,128,127,128,128,129,129,0
873,127,128,127,126,127,128,129,128,0
876,128,127,127,127,127,128,128,128,0
879,127,127,126,128,128,129,129,128,0
882,127,128,128,128,128,129,128,129,0
885,127,129,127,129,129,128,128,127,0
888,126,127,127,125,130,125,128,128,0
891,127,128,127,126,129,128,127,128,0
894,126,128,127,128,129,129,128,128,0
898,127,128,127,127,129,125,129,128,0
902,128,127,127,129,127,127,123,126,0
906,130,127,127,129,127,128,124,126,0
910,126,128,128,126,127,129,128,128,0
914,127,128,127,126,128,128,128,128,0
920,127,128,127,125,124,126,128,128,0
925,127,128,127,126,127,128,129,127,0
928,128,128,126,128,127,129,128,129,0
930,127,128,126,128,127,127,129,128,0
933,127,127,127,127,127,126,128,127,0
936,126,127,127,128,126,125,126,125,0
940,129,127,127,130,126,127,124,126,0
943,129,127,127,130,127,127,126,127,0
946,128,127,127,129,128,127,126,126,0
949,128,127,127,129,127,128,126,128,0
952,126,129,127,128,131,130,130,128,0
955,126,128,127,128,131,130,130,128,0
959,127,128,127,127,132,128,130,128,0
962,127,128,130,125,129,128,129,128,0
966,128,128,127,128,128,129,129,128,0
969,128,128,127,127,128,129,128,128,0
971,126,127,128,126,128,127,128,128,0
974,127,128,128,125,129,128,128,128,0
977,127,127,128,127,127,128,127,128,0
980,128,128,127,128,128,127,128,126,0
983,127,127,128,126,127,126,128,127,0
985,126,124,127,131,128,128,123,126,0
991,131,127,128,130,124,129,129,128,0
995,128,128,128,127,129,128,128,127,0
997,127,128,128,128,127,126,128,127,0
1001,127,128,127,126,129,127,127,128,0
1004,127,127,128,126,129,129,129,128,0
1007,128,128,128,127,128,128,129,128,0
1010,127,127,127,127,127,127,124,126,0
1013,129,126,127,130,128,128,124,126,0
1016,130,126,127,127,130,129,129,128,0
1019,127,128,127,125,128,129,129,128,0
1022,126,128,127,127,128,128,129,127,0
1025,126,127,128,126,126,127,130,128,0
1031,127,128,127,125,128,128,128,128,0
1034,127,128,128,128,128,128,129,128,0
1037,127,128,127,127,126,127,127,126,0
1040,128,127,127,130,126,127,125,127,0
1043,128,127,127,130,125,126,128,128,0
1046,127,129,127,126,129,128,128,127,0
1049,127,129,129,126,129,129,129,128,0
1052,125,127,128,125,127,128,129,127,0
1054,128,128,128,126,129,129,128,127,0
1058,128,128,127,127,128,128,128,127,0
1061,128,128,128,128,124,127,127,128,0
1064,127,127,128,132,129,127,123,126,0
1068,129,127,127,131,127,125,129,128,0
1071,128,128,129,127,128,127,128,127,0
1074,128,129,127,126,127,126,128,128,0
1077,126,128,129,128,124,125,129,128,0
1084,127,127,127,129,128,128,129,128,0
1087,127,128,127,127,128,128,128,128,0
1090,127,127,128,127,126,127,127,127,0
1093,127,127,127,128,127,128,128,126,0
1095,131,127,127,131,127,128,124,125,0
1098,127,128,127,126,128,129,128,128,0
1101,127,128,127,127,129,128,129,128,0
1104,128,128,127,126,129,126,128,128,0
1107,126,127,127,126,127,128,128,128,0
1110,128,128,127,129,129,130,128,127,0
1113,127,128,128,130,127,126,127,128,0
1116,128,126,128,135,128,128,123,126,0
1119,131,126,127,133,130,129,125,125,0
1122,128,128,127,127,129,130,129,129,0
1126,126,127,127,129,127,129,129,128,0
1129,127,128,127,129,129,128,129,128,0
1132,127,128,129,125,128,128,128,127,0
1135,128,128,128,128,128,128,128,128,0
1139,128,128,127,128,129,128,128,127,0
1141,128,128,129,128,128,123,128,128,0
1144,126,128,128,128,127,126,128,127,0
1147,128,128,128,128,126,126,128,128,0
1150,128,128,127,126,126,126,127,128,0
1153,127,125,127,129,126,127,123,126,0
1156,130,126,128,130,128,128,123,126,0
1159,129,126,126,127,127,129,129,128,0
1162,128,127,130,125,126,128,128,128,0
1167,127,128,127,126,128,127,128,128,0
1173,126,128,129,126,130,127,129,128,0
1176,127,128,127,125,127,128,128,128,0
1179,127,128,126,127,128,128,127,127,0
1183,128,127,127,125,128,128,128,128,0
1185,124,127,128,126,123,126,126,126,0
1189,129,127,127,130,125,126,128,128,0
1192,127,128,127,126,127,128,129,128,0
1195,126,127,128,126,127,127,129,128,0
1198,128,125,127,129,126,127,126,127,0
1201,129,127,126,127,129,128,128,129,0
1204,128,128,127,126,130,129,128,128,0
1207,127,129,128,125,129,127,129,127,0
1210,126,128,128,127,124,127,128,128,0
1213,128,128,128,127,128,127,128,128,0
1217,126,128,127,126,129,128,128,128,0
1220,127,127,127,127,125,127,128,128,0
1223,129,126,127,129,127,128,122,126,0
1226,129,126,127,129,125,127,128,128,0
1230,127,128,127,126,129,128,129,128,0
1233,126,128,127,127,128,128,130,128,0
1237,127,127,128,125,128,128,128,128,0
1239,128,128,128,127,127,127,128,127,0
1243,128,127,127,128,128,128,128,127,0
1246,127,128,127,127,127,126,128,128,0
1249,127,127,128,127,127,125,123,127,0
1252,129,126,128,131,127,128,125,127,0
1255,128,128,128,128,128,129,128,128,0
1259,127,127,128,125,128,128,129,127,0
1265,128,127,128,126,126,126,129,128,0
1268,127,127,128,126,128,128,129,128,0
1271,128,127,129,129,126,128,128,127,0
1274,128,127,128,127,126,125,127,127,0
1276,129,127,127,131,128,128,122,126,0
1279,129,126,127,131,127,125,125,126,0
1282,129,127,130,129,129,128,129,127,0
1285,128,128,126,125,128,128,128,128,0
1289,127,128,129,126,128,128,129,128,0
1291,127,128,127,126,129,128,128,127,0
1294,127,128,127,128,127,128,128,128,0
1297,127,128,127,128,128,127,128,127,0
1301,127,128,129,126,128,124,129,128,0
1304,126,126,127,128,128,128,129,128,0
1308,127,127,127,128,129,128,128,128,0
1311,127,128,127,127,128,128,128,128,0
1314,127,126,126,131,128,127,123,126,0
1316,129,126,128,129,128,128,126,127,0
1319,128,128,127,125,129,129,128,128,0
1322,128,128,127,127,127,128,129,128,0
1325,127,127,128,127,126,126,129,127,0
1328,126,127,128,127,128,128,128,128,0
1331,127,128,127,129,128,129,127,128,0
1334,127,128,127,129,127,128,128,128,0
1337,125,129,128,127,126,125,127,127,0
1340,127,127,129,132,128,127,124,125,0
1345,130,127,127,130,125,128,128,128,0
1351,127,128,128,128,129,128,129,128,0
1355,127,128,128,127,127,128,126,127,0
1359,129,127,128,131,129,128,124,126,0
1362,128,127,127,128,128,130,129,127,0
1364,128,128,127,126,128,129,129,128,0
1368,127,128,130,125,128,126,129,128,0
1371,127,127,127,125,129,127,129,128,0
1375,128,128,127,128,129,129,129,128,0
1378,128,128,129,127,129,128,128,128,0
1381,127,127,128,127,124,126,129,128,0
1383,126,127,126,126,127,126,125,126,0
1389,129,127,126,129,127,127,125,128,0
1392,127,128,126,127,130,129,128,128,0
1397,128,127,127,126,127,125,129,127,0
1400,126,127,128,128,128,128,123,125,0
1403,130,127,127,129,125,127,129,127,0
1408,127,128,128,126,130,129,129,127,0
1411,126,128,127,125,129,127,129,128,0
1415,127,128,128,126,129,128,129,129,0
1419,127,127,127,128,127,128,127,127,0
1422,127,128,127,128,126,129,128,128,0
1425,127,128,127,127,127,127,128,128,0
1427,127,127,129,127,123,127,123,126,0
1430,130,127,127,132,127,126,129,128,0
1433,128,128,127,129,130,128,129,127,0
1436,128,128,128,127,129,128,130,128,0
1440,126,126,126,127,127,127,130,128,0
1446,126,127,127,128,128,129,128,128,0
1450,129,128,127,128,129,128,128,128,0
1453,127,128,128,127,122,128,128,127,0
1456,130,127,127,132,128,128,123,126,0
1460,130,127,127,132,125,126,129,129,0
1463,127,128,128,130,127,129,129,128,0
1466,127,128,128,130,128,128,130,128,0
1469,126,128,130,128,127,128,129,128,0
1471,127,128,128,128,128,128,128,128,0
1474,128,128,127,129,127,127,128,128,0
1478,127,128,128,127,128,127,129,128,0
1482,126,127,127,130,127,127,122,125,0
1485,129,126,128,129,127,126,127,128,0
1490,126,128,128,128,128,129,129,128,0
1493,128,127,127,128,128,128,129,128,0
1497,127,128,127,128,129,128,129,128,0
1503,127,127,128,127,128,127,128,128,0
1507,127,128,128,128,128,128,128,128,0
1511,127,127,127,126,128,127,128,128,0
1514,127,126,129,126,127,127,128,128,0
1517,127,127,128,126,122,127,127,128,0
1520,127,128,127,128,129,127,128,128,0
1527,126,128,127,128,128,127,128,128,0
1530,127,127,127,126,127,127,123,126,0
1533,128,127,128,130,129,127,124,126,0
1536,130,128,127,128,129,129,129,128,0
1541,128,128,127,125,128,128,129,128,0
1548,127,128,128,126,128,125,129,128,0
1551,127,127,127,125,128,127,128,128,0
1555,127,128,127,128,127,128,128,128,0
1558,128,128,127,127,128,128,129,128,0
1561,126,128,126,126,126,126,127,127,0
1565,130,128,126,131,127,128,124,125,0
1569,129,127,126,128,128,129,129,127,0
1572,128,129,128,128,129,127,128,129,0
1574,127,128,127,125,129,127,128,128,0
1577,129,128,128,125,125,126,127,127,0
1580,127,128,128,126,128,128,127,128,0
1583,128,128,127,127,128,128,128,128,0
1585,127,128,128,126,129,127,126,127,0
1590,127,127,127,130,128,128,122,126,0
1593,130,127,127,128,129,128,128,127,0
1596,128,128,127,126,126,129,128,128,0
1600,127,127,127,125,128,127,129,128,0
1603,129,128,128,127,128,128,128,128,0
1608,127,128,128,128,128,128,127,128,0
1611,127,128,127,128,127,128,128,128,0
1614,126,128,127,127,128,127,127,128,0
1617,126,127,130,131,128,127,123,126,0
1620,129,127,128,130,124,129,129,128,0
1623,128,128,128,127,128,128,129,128,0
1626,127,128,127,126,128,128,128,128,0
1631,127,127,128,126,127,125,129,128,0
1634,126,127,127,126,127,128,129,128,0
1639,128,128,127,128,128,128,126,127,0
1644,128,128,127,127,127,127,128,127,0
1647,126,127,127,126,127,127,128,127,0
1650,129,127,127,132,128,128,123,126,0
1653,126,128,127,127,128,128,130,128,0
1655,127,128,127,126,129,128,130,128,0
1660,126,128,129,128,124,127,128,126,0
1663,128,127,127,130,127,126,125,125,0
1665,126,129,130,126,131,129,129,128,0
1669,127,128,127,126,128,129,129,128,0
1672,127,128,128,126,128,125,129,128,0
1675,126,127,128,127,128,129,130,128,0
1679,128,128,127,128,128,129,128,127,0
1683,128,128,128,128,128,127,128,127,0
1687,127,127,127,127,127,128,125,125,0
1690,130,127,127,130,128,128,123,125,0
1693,127,128,128,125,128,128,129,128,0
1696,127,128,127,126,129,128,129,129,0
1704,126,128,128,125,129,127,127,128,0
1707,129,127,128,126,127,127,128,128,0
1711,128,128,128,128,129,128,126,128,0
1715,127,128,127,127,125,126,127,128,0
1720,127,127,126,130,127,127,122,126,0
1723,130,127,128,130,128,127,127,128,0
1727,127,128,128,126,129,129,128,127,0
1730,128,128,128,128,128,127,129,128,0
1732,127,128,129,128,128,127,129,127,0
1736,127,128,129,128,129,128,129,128,0
1739,126,128,127,128,128,129,129,127,0
1742,126,127,128,127,128,128,128,128,0
1747,126,127,127,126,129,124,123,127,0
1752,129,126,127,129,128,128,123,125,0
1756,128,125,129,128,128,129,129,128,0
1758,127,128,126,125,128,129,130,128,0
1761,127,127,130,127,124,128,129,128,0
1764,126,128,128,126,126,127,129,127,0
1770,128,128,127,127,128,128,129,128,0
1767,128,128,126,125,127,127,128,128,0
1773,126,128,127,127,124,126,128,128,0
1777,126,128,128,131,128,128,123,127,0
1780,129,128,127,128,130,129,129,128,0
1783,127,128,127,129,128,127,128,127,0
1786,127,128,126,126,128,126,128,128,0
1789,127,128,128,126,130,127,129,127,0
1792,128,128,128,127,128,129,128,128,0
1796,127,128,126,128,129,126,128,128,0
1799,127,127,127,127,127,127,128,127,0
1802,130,126,127,130,128,127,123,126,0
1805,128,127,126,129,126,127,130,128,0
1808,128,128,128,128,129,128,129,128,0
1811,128,128,127,126,128,127,130,128,0
1814,127,129,127,126,124,128,130,128,0
1817,127,128,127,127,127,129,127,128,0
1820,128,128,127,127,128,130,129,127,0
1824,126,128,127,129,127,128,129,127,0
1830,126,127,129,128,126,128,129,127,0
1833,126,128,128,128,128,128,127,128,0
1838,127,128,127,128,128,127,128,128,0
1841,127,127,128,126,128,125,122,126,0
1846,130,127,128,130,129,129,123,126,0
1851,129,127,128,131,127,126,130,129,0
1855,128,128,126,128,129,129,130,128,0
1861,127,128,129,125,128,128,130,128,0
1864,127,127,130,127,127,127,129,128,0
1867,127,127,126,126,127,128,128,128,0
1870,127,128,128,128,127,127,128,127,0
1872,128,128,128,126,127,126,126,127,0
1875,126,126,127,125,127,124,128,128,0
1879,126,127,128,130,125,128,124,126,0
1882,128,127,127,126,128,128,128,128,0
1885,128,128,126,128,128,128,128,127,0
1888,127,125,127,129,126,127,126,127,0
1891,129,127,127,129,127,127,126,127,0
1894,129,127,128,126,130,129,131,128,0
1897,128,128,127,125,129,128,129,128,0
1900,129,129,129,128,131,128,131,128,0
1903,127,128,127,127,127,128,128,128,0
1906,127,128,128,128,128,127,128,127,0
1909,127,128,128,126,128,127,128,127,0
1912,127,126,127,127,125,126,122,126,0
1914,129,126,127,130,128,129,124,127,0
1922,127,128,126,126,127,129,128,128,0
1926,127,128,128,126,127,128,130,128,0
1929,127,128,127,128,129,127,128,128,0
1932,126,128,127,126,124,127,127,128,0
1935,128,128,128,129,128,128,128,127,0
1939,128,129,127,130,128,128,128,128,0
1943,127,128,127,128,128,126,127,128,0
1946,126,128,130,130,128,129,122,126,0
1950,129,128,128,128,123,129,128,128,0
1955,127,128,127,128,128,128,128,128,0
1960,127,127,128,125,126,126,129,128,0
1964,128,128,127,126,127,128,129,128,0
1967,128,128,126,126,128,127,128,128,0
1971,128,128,127,127,127,127,128,128,0
1974,126,127,127,127,124,125,128,128,0
1977,129,126,126,132,128,129,124,126,0
1980,128,127,127,129,125,128,129,128,0
1983,127,128,127,126,129,128,128,127,0
1986,127,128,128,126,127,126,127,128,0
1990,127,128,127,126,129,128,128,128,0
1993,127,128,128,128,128,127,127,128,0
1998,128,128,128,128,127,128,127,128,0
2001,128,128,129,129,126,126,124,127,0
2004,129,126,127,130,127,127,124,127,0
2007,128,127,127,130,124,129,130,128,0
2011,127,128,126,129,128,129,129,128,0
2015,127,127,129,128,129,128,130,128,0
2021,127,127,127,129,125,127,126,127,0
2024,128,127,127,130,126,126,129,128,0
2041,129,128,127,127,129,128,130,128,0
2047,127,129,127,126,129,128,130,128,0
2053,126,128,128,127,125,127,128,128,0
2059,127,127,129,127,126,128,128,127,0
2062,128,128,128,128,128,128,128,128,0
2065,127,128,127,127,127,127,128,128,0
2069,128,126,127,130,127,128,123,126,0
2072,130,126,127,129,123,127,128,127,0
2076,128,129,127,125,127,128,128,128,0
2079,126,128,126,125,128,128,129,127,0
2084,126,128,128,127,126,127,128,128,0
2090,127,127,128,127,128,128,128,127,0
2095,128,128,127,128,128,127,127,128,0
2098,127,128,128,128,128,127,127,128,0
2101,127,125,127,130,128,127,122,125,0
2108,130,126,127,131,126,125,128,127,0
2112,128,128,130,128,129,128,128,128,0
2115,127,128,127,127,129,129,129,128,0
2119,127,127,128,126,128,127,129,128,0
2122,128,128,128,125,129,127,129,128,0
2125,127,127,127,128,128,128,128,128,0
2131,128,128,127,126,127,127,128,128,0
2134,127,127,128,126,127,124,128,128,0
2137,127,124,127,131,129,128,123,126,0
2142,128,126,129,129,129,128,128,127,0
2145,127,128,128,128,129,128,128,128,0
2149,127,128,127,126,127,127,128,128,0
2152,127,128,128,127,124,129,128,127,0
2155,128,128,128,128,129,129,127,128,0
2159,128,128,129,128,126,127,128,127,0
2162,129,126,128,131,128,127,123,126,0
2166,129,126,128,130,127,128,125,126,0
2171,126,129,128,128,129,128,129,127,0
2174,128,128,128,127,128,128,129,128,0
2177,127,128,129,126,129,127,129,128,0
2181,126,128,128,127,128,127,128,128,0
2184,127,128,128,129,127,126,128,128,0
2187,128,128,127,127,129,128,128,128,0
2190,127,128,128,128,129,126,125,126,0
2193,131,127,127,130,128,127,123,126,0
2208,128,127,129,127,129,128,129,128,0
2213,127,128,128,127,127,128,128,128,0
2218,127,128,127,127,127,127,128,129,0
2224,126,127,127,127,128,129,129,128,0
2227,128,128,127,128,127,129,127,128,0
2231,127,128,127,127,128,128,128,128,0
2234,126,128,127,126,126,127,125,126,0
2237,129,127,127,129,128,127,124,126,0
2241,129,126,128,125,128,127,129,128,0
2244,127,128,128,127,127,128,130,128,0
2248,126,128,127,126,129,127,130,128,0
2250,128,128,128,126,128,128,129,128,0
2253,127,127,127,127,128,128,128,127,0
2256,128,128,127,128,127,128,128,128,0
2259,128,127,129,128,124,126,128,127,0
2262,127,127,128,126,127,125,129,128,0
2265,128,128,128,128,126,127,127,128,0
2269,128,127,127,128,129,128,128,128,0
2272,127,128,128,127,129,127,123,126,0
2276,129,127,127,130,129,129,123,127,0
2279,130,127,128,130,127,126,129,128,0
2281,128,128,126,126,128,129,129,128,0
2284,127,128,126,125,128,127,129,128,0
2287,127,128,129,128,126,127,129,128,0
2290,126,127,130,129,129,128,127,128,0
2294,127,128,128,128,128,128,128,128,0
2297,127,127,127,126,127,127,129,127,0
2300,129,126,126,131,128,128,123,126,0
2304,129,127,127,128,131,129,129,128,0
2308,127,128,126,128,129,128,129,127,0
2312,128,128,127,128,127,127,129,128,0
2317,127,128,130,126,127,127,129,128,0
2320,127,128,128,126,126,127,128,127,0
2325,127,128,128,129,127,128,127,127,0
2330,127,128,127,128,126,125,128,127,0
2335,129,126,127,126,123,127,123,126,0
2339,130,127,128,131,127,125,130,128,0
2344,126,127,127,127,127,128,129,128,0
2347,126,128,128,126,128,128,129,127,0
2350,128,127,128,127,127,126,127,128,0
2355,126,128,128,130,127,127,124,126,0
2359,127,128,127,127,129,129,128,128,0
2362,127,128,127,128,129,129,129,128,0
2365,127,128,129,127,128,128,129,128,0
2368,126,127,129,128,131,128,128,128,0
2379,128,128,128,128,127,129,129,128,0
2383,128,128,128,128,129,128,129,129,0
2385,126,127,128,130,128,127,123,126,0
2389,130,127,127,130,128,129,125,125,0
2393,127,128,127,127,129,128,129,128,0
2398,127,128,127,126,128,128,129,129,0
2405,127,128,128,125,127,125,129,128,0
2410,126,128,127,126,126,126,129,127,0
2416,128,127,128,128,128,127,128,128,0
2421,127,128,126,129,128,126,127,127,0
2425,126,127,127,126,121,126,124,126,0
2429,130,126,128,130,129,127,124,126,0
2432,126,128,126,128,128,128,130,128,0
2437,128,128,127,125,128,127,130,128,0
2441,127,128,128,125,129,126,129,128,0
2445,129,127,127,127,128,126,129,127,0
2448,128,128,127,128,128,127,128,128,0
2452,127,128,127,129,128,128,130,127,0
2455,127,128,128,127,128,126,127,127,0
2460,131,127,126,131,127,128,123,125,0
2466,129,127,128,126,128,127,128,127,0
2470,131,129,128,126,128,128,128,128,0
2473,127,128,127,127,128,127,127,127,0
2477,129,127,128,125,123,129,129,128,0
2481,128,128,127,126,127,129,128,127,0
2483,128,128,128,127,128,128,128,127,0
2487,128,127,128,125,127,128,129,126,0
2490,131,126,127,129,128,129,123,126,0
2493,129,127,127,128,129,129,126,128,0
2496,128,129,127,126,131,129,129,129,0
2499,127,127,126,126,128,128,128,128,0
2502,128,128,129,126,127,128,129,128,0
2505,127,127,128,126,128,127,127,128,0
2509,128,128,127,128,127,130,128,128,0
2512,127,128,126,126,127,128,128,128,0
2516,126,127,126,131,127,129,123,126,0
2519,129,127,128,132,128,130,125,127,0
2522,128,128,128,126,128,130,129,128,0
2525,127,128,127,126,129,128,128,128,0
2528,127,127,128,126,128,126,128,128,0
2541,127,127,127,127,127,126,128,128,0
2544,127,127,127,126,127,127,128,128,0
2548,127,128,126,125,128,126,129,129,0
2551,127,126,127,125,127,126,127,126,0
2555,129,128,127,130,127,128,124,127,0
2560,126,128,128,126,129,128,128,128,0
2563,128,128,127,126,129,129,129,129,0
2567,127,128,127,125,128,123,129,128,0
2575,127,128,128,127,129,127,128,127,0
2580,128,128,127,128,127,128,129,128,0
2586,127,128,127,127,127,123,128,128,0
2591,127,126,127,127,125,125,128,128,0
2595,127,126,127,132,127,128,122,126,0
2598,130,125,128,128,127,129,128,128,0
2602,128,128,127,127,129,128,128,128,0
2605,127,128,128,128,125,127,128,127,0
2612,127,128,128,128,127,127,128,127,0
2615,128,128,128,128,127,129,128,128,0
2619,128,128,127,128,125,127,127,127,0
2622,128,127,128,126,124,123,122,126,0
2626,130,127,127,131,128,129,123,126,0
2629,130,128,127,129,129,130,130,128,0
2632,127,128,126,128,128,128,129,127,0
2636,127,127,126,125,127,126,128,128,0
2639,127,127,129,127,127,127,128,128,0
2643,128,128,127,127,129,129,127,128,0
2646,127,127,128,127,129,128,127,128,0
2653,127,128,128,127,125,126,127,128,0
2657,126,125,127,130,129,128,123,126,0
2661,130,127,127,130,127,127,128,128,0
2664,127,129,128,126,129,129,128,128,0
2667,127,128,127,125,128,127,128,128,0
2671,127,128,128,125,128,127,128,127,0
2674,128,128,128,127,128,129,127,128,0
2677,127,128,127,128,127,126,127,127,0
2681,127,127,127,127,127,124,123,126,0
2684,129,126,127,130,128,128,124,125,0
2688,128,125,128,128,128,128,129,127,0
2691,128,128,128,127,129,128,129,128,0
2696,126,127,129,128,129,128,129,127,0
2701,126,127,130,126,128,127,129,128,0
2705,127,128,127,127,128,127,128,128,0
2709,127,128,127,129,127,127,128,128,0
2712,127,127,128,127,126,126,128,127,0
2715,127,127,128,128,127,125,128,128,0
2719,127,128,129,127,128,128,129,128,0
2726,128,128,128,128,128,128,129,128,0
2730,127,128,127,131,128,128,124,126,0
2733,129,127,128,130,128,129,124,126,0
2738,129,127,127,129,127,128,130,128,0
2741,127,128,129,128,128,128,128,128,0
2745,128,128,128,124,127,127,129,128,0
2748,127,127,128,126,128,127,129,128,0
2752,127,128,128,125,128,128,128,128,0
2763,127,128,128,126,128,128,128,128,0
2767,127,128,127,127,127,126,128,128,0
2771,127,126,127,129,126,126,125,127,0
2775,129,127,127,130,127,126,126,127,0
2778,128,128,127,126,129,129,127,128,0
2782,128,128,128,125,127,127,128,128,0
2785,126,128,127,125,127,126,128,128,0
2789,127,128,127,127,128,128,128,128,0
2792,127,128,127,128,128,128,128,128,0
2796,126,128,127,126,128,127,127,128,0
2799,128,126,128,132,127,127,123,126,0
2802,129,127,127,131,126,125,131,129,0
2806,127,128,126,126,128,129,129,128,0
2810,128,128,127,127,130,128,129,128,0
2813,127,126,128,128,128,125,130,128,0
2817,127,128,127,127,129,128,128,128,0
2822,127,128,127,127,129,128,128,127,0
2826,127,128,127,129,128,128,128,128,0
2839,126,128,127,128,126,127,128,127,0
2843,128,127,126,130,126,128,125,126,0
2846,128,126,128,127,129,130,129,128,0
2850,127,128,128,126,127,128,128,128,0
2853,128,128,128,127,124,125,129,128,0
2857,127,127,127,128,125,128,129,128,0
2861,128,128,127,128,128,129,128,127,0
2864,128,127,128,127,128,128,128,128,0
2874,126,126,127,125,127,126,122,126,0
2878,131,126,128,130,128,128,123,126,0
2881,128,126,128,127,129,129,129,127,0
2885,127,128,127,127,129,129,130,128,0
2888,129,128,128,125,127,128,129,127,0
2891,127,127,128,126,127,129,128,128,0
2895,128,128,129,127,127,129,128,127,0
2898,128,128,128,128,127,128,128,128,0
2901,128,128,128,126,127,127,124,125,0
2904,130,126,127,130,127,128,123,126,0
2908,129,126,128,125,127,127,130,128,0
2911,128,128,128,126,128,128,130,128,0
2915,126,127,127,126,127,126,128,128,0
2920,129,128,127,129,127,127,128,128,0
2923,126,128,129,129,128,128,127,128,0
2926,127,128,127,127,128,128,129,128,0
2930,127,128,126,127,125,126,128,128,0
2933,127,128,127,130,125,126,124,126,0
2937,128,126,127,130,124,127,125,127,0
2952,127,128,127,126,127,129,128,128,0
2956,127,128,128,126,128,127,129,128,0
2959,127,128,129,126,126,128,129,128,0
2963,128,128,127,129,130,128,128,127,0
2966,127,128,127,128,128,126,129,128,0
2970,128,128,127,128,124,124,128,127,0
2973,130,126,127,130,127,128,124,125,0
2976,130,127,128,129,125,128,129,128,0
2980,126,128,126,128,127,127,129,128,0
2983,126,128,129,127,129,126,130,128,0
2990,127,127,129,128,129,127,128,128,0
2993,127,128,128,127,128,128,128,127,0
2997,127,128,127,127,129,128,128,128,0
3000,128,128,128,128,128,125,128,128,0
3003,127,127,128,127,127,125,127,125,0
3006,130,127,126,132,129,128,122,127,0
3009,128,127,128,126,129,129,129,128,0
3012,127,128,127,126,128,127,128,128,0
3015,127,128,127,126,126,126,129,128,0
3028,126,128,128,127,127,127,127,127,0
3031,129,128,128,127,128,128,128,128,0
3035,127,128,127,127,124,127,128,128,0
3040,126,128,128,128,121,126,123,125,0
3049,130,127,127,132,127,128,124,127,0
3053,125,129,128,129,127,127,128,128,0
3056,128,128,127,125,128,128,128,128,0
3059,127,127,129,127,128,128,130,128,0
3063,126,127,128,129,127,128,129,128,0
3066,128,127,128,129,127,127,129,128,0
3070,126,128,127,127,127,126,129,128,0
3076,126,127,128,128,122,126,122,126,0
3079,130,126,127,130,127,127,126,128,0
3083,127,128,127,129,128,128,128,128,0
3086,127,128,126,126,128,129,129,129,0
3089,126,128,127,126,127,128,129,128,0
3094,127,127,129,127,128,129,128,127,0
3098,127,127,127,129,130,128,128,128,0
3102,128,128,126,127,128,128,128,128,0
3106,128,124,127,131,127,127,122,126,0
3109,130,126,128,132,128,127,125,127,0
3113,128,126,128,126,128,127,128,127,0
3115,127,128,127,128,129,127,128,127,0
3119,127,126,127,128,126,126,128,127,0
3122,128,126,130,126,126,128,128,127,0
3125,128,128,128,126,127,128,128,128,0
3129,127,128,128,128,126,128,128,127,0
3134,127,128,127,126,128,127,128,128,0
3138,127,127,127,127,125,127,128,128,0
3182,128,128,129,128,129,128,128,128,0
3191,128,127,128,128,129,128,127,127,0
3202,127,124,127,130,129,128,123,126,0
3252,130,127,127,129,128,129,124,126,0
3264,130,128,126,127,132,130,129,128,0
3320,126,128,127,128,131,129,129,128,0
3333,127,128,129,128,129,128,129,129,0
3344,126,128,129,127,128,128,127,128,0
3370,127,128,127,126,128,128,127,128,0
3380,127,128,128,127,129,127,128,128,0
3388,127,127,127,127,128,126,127,128,0
3391,127,126,128,126,128,127,128,128,0
3395,128,128,128,128,127,127,127,128,0
3458,129,128,127,128,127,128,128,128,0
3467,127,127,127,126,126,127,129,127,0
3473,130,127,127,131,128,129,123,125,0
3479,130,128,127,129,125,129,129,128,0
3484,128,129,127,125,128,129,129,128,0
3488,127,128,128,125,127,129,128,128,0
3491,128,127,127,124,124,126,128,128,0
3495,128,128,127,126,126,129,128,127,0
3498,128,128,127,127,127,128,129,128,0
3501,126,127,127,127,122,126,129,128,0
3505,126,127,128,126,126,126,123,125,0
3508,130,127,127,132,127,126,125,125,0
3511,128,128,127,129,128,128,128,128,0
3515,127,128,127,129,129,128,129,127,0
3518,127,128,128,129,127,128,123,125,0
3521,130,127,127,129,123,129,130,128,0
3525,127,128,128,126,129,128,129,128,0
3528,127,128,129,125,129,127,130,129,0
3531,126,128,129,127,127,128,129,128,0
3534,126,127,128,127,128,128,127,128,0
3538,128,129,127,127,128,128,128,127,0
3541,127,128,127,128,128,127,127,127,0
3544,126,126,127,129,128,128,123,126,0
3548,130,127,128,130,127,128,124,125,0
3553,128,129,128,126,128,129,130,127,0
3558,127,128,128,126,126,128,128,128,0
3564,129,126,130,126,127,128,131,127,0
3568,127,128,126,127,127,128,129,128,0
3571,127,128,127,128,128,128,129,127,0
3575,127,127,128,128,127,127,128,129,0
3579,126,126,127,127,122,127,125,127,0
3582,128,126,127,129,126,127,124,125,0
3587,127,128,128,128,128,128,128,128,0
3591,127,129,128,126,128,127,129,128,0
3594,127,128,127,126,128,124,128,127,0
3598,127,128,128,126,124,128,128,128,0
3601,127,128,127,127,128,128,127,128,0
3604,128,128,127,128,127,128,128,128,0
3608,128,128,127,128,127,126,123,126,0
3611,129,127,127,130,127,126,122,126,0
3656,126,128,127,126,129,128,129,128,0
3666,127,128,128,126,127,128,129,128,0
3671,127,127,127,125,127,127,127,128,0
3678,127,128,127,128,128,128,129,128,0
3683,127,128,126,129,128,128,128,127,0
3727,127,127,126,128,128,128,128,128,0
3740,127,126,127,126,127,126,125,125,0
3747,129,127,127,130,128,127,123,127,0
3751,126,128,128,127,128,127,128,128,0
3755,128,129,128,127,128,127,129,128,0
3759,126,127,129,126,128,126,129,128,0
3763,127,127,127,126,127,128,129,128,0
3768,128,128,128,129,128,128,128,128,0
3773,127,128,128,129,127,128,128,128,0
3777,126,127,127,126,127,122,125,127,0
3780,129,128,127,131,129,126,123,126,0
3784,129,127,127,126,130,129,130,127,0
3787,128,129,127,126,129,129,129,127,0
3790,127,128,127,126,128,128,130,128,0
3794,127,127,128,127,126,128,128,127,0
3797,128,128,129,129,127,128,127,128,0
3800,127,127,128,128,127,128,128,128,0
3803,126,128,127,128,128,126,128,129,0
3807,127,127,128,127,127,126,127,128,0
3810,128,128,128,127,127,127,127,127,0
3813,128,128,128,127,127,127,127,127,0
3817,128,127,128,127,127,124,123,126,0
3820,129,126,127,130,128,128,124,126,0
3823,129,126,127,130,129,127,128,128,0
3827,127,129,130,125,129,128,129,128,0
3830,126,129,126,125,128,128,130,128,0
3833,127,128,127,126,129,128,129,126,0
3836,127,126,127,126,128,129,128,128,0
3839,128,128,127,126,129,128,128,128,0
3841,127,127,128,127,128,128,129,128,0
3844,127,127,128,130,129,129,123,126,0
3847,129,127,128,130,128,127,126,128,0
3858,126,128,128,126,129,129,130,128,0
3861,127,129,127,127,130,128,130,128,0
3864,126,127,128,129,130,126,130,128,0
3868,127,127,128,127,129,128,128,127,0
3872,127,128,127,130,128,128,128,128,0
3877,127,128,128,130,128,127,129,128,0
3883,127,128,128,132,126,128,122,126,0
3888,131,127,128,132,126,126,126,129,0
3894,128,128,127,129,128,129,128,128,0
3897,127,128,127,128,129,128,128,128,0
3901,126,127,127,125,126,126,128,127,0
3904,126,127,127,125,128,129,128,128,0
3907,128,127,127,128,127,128,128,128,0
3911,127,128,127,126,128,129,129,128,0
3914,127,128,128,129,127,128,123,126,0
3918,131,126,128,131,127,129,123,126,0
3926,126,128,128,127,129,128,129,128,0
3930,127,128,129,125,127,127,129,128,0
3934,127,128,127,125,127,126,129,128,0
3937,126,128,129,125,128,127,129,127,0
3940,127,128,128,128,126,127,128,128,0
3943,127,128,127,128,128,127,128,128,0
3947,127,128,129,127,127,126,123,126,0
3950,129,126,126,130,128,128,123,126,0
3952,128,127,127,126,129,128,128,128,0
3955,127,128,127,126,129,128,128,127,0
3958,127,127,127,126,128,127,128,128,0
3994,127,127,129,126,128,127,128,128,0
4005,127,127,128,128,127,128,127,128,0
4009,128,128,129,128,127,127,128,128,0
4016,126,127,127,128,126,127,126,128,0
4020,127,127,127,128,123,128,128,127,0
4062,129,128,127,129,126,128,127,127,0
4074,128,128,128,128,127,127,127,127,0
4082,128,127,127,128,128,126,128,127,0
4088,129,126,127,130,129,127,124,126,0
4091,129,127,126,130,127,126,129,128,0
4095,127,128,127,128,129,128,129,128,0
4098,128,128,127,124,127,127,129,127,0
4102,128,127,130,125,129,127,128,128,0
4105,128,128,128,126,129,127,128,127,0
4109,128,128,128,128,128,129,128,127,0
4113,128,128,128,127,125,125,128,128,0
4116,129,127,126,130,127,128,125,127,0
4120,128,127,127,130,127,125,128,128,0
4123,127,128,128,128,128,128,130,128,0
4127,127,128,127,125,128,128,129,128,0
4130,127,127,128,126,128,127,128,128,0
4133,127,128,127,128,129,128,128,128,0
4136,127,129,127,129,129,128,128,128,0
4139,127,128,128,127,125,124,123,126,0
4142,130,127,128,131,129,128,123,126,0
4148,130,126,128,129,125,128,129,128,0
4151,128,128,128,128,129,128,130,128,0
4156,127,128,129,127,129,127,130,127,0
4159,126,127,129,128,129,128,129,127,0
4161,127,128,128,125,129,128,128,128,0
4164,127,129,127,126,128,129,129,128,0
4168,127,128,127,126,129,127,127,127,0
4171,127,126,130,126,128,125,121,125,0
4175,133,123,128,130,129,129,123,128,0
4178,127,128,126,125,129,129,128,129,0
4182,122,129,126,125,127,128,128,128,0
4186,126,127,126,127,125,127,125,127,0
4194,128,127,126,129,124,125,129,128,0
4198,128,128,127,127,127,128,128,128,0
4201,127,129,126,126,129,128,129,128,0
4204,127,128,127,124,127,127,130,128,0
4207,126,128,127,127,128,128,128,127,0
4210,128,128,127,127,127,129,128,128,0
4213,126,130,127,128,128,128,128,127,0
4216,127,128,128,129,128,127,123,125,0
4219,130,127,127,131,129,127,126,127,0
4221,127,129,129,126,128,129,129,127,0
4224,127,128,128,127,128,128,128,127,0
4227,129,127,130,129,129,126,128,128,0
4230,128,127,129,126,127,127,127,128,0
4233,128,129,127,128,129,129,129,129,0
4236,126,131,127,127,128,128,129,128,0
4239,128,126,129,126,125,125,128,127,0
4242,128,127,125,131,128,129,124,127,0
4245,127,128,127,126,128,129,128,128,0
4249,127,129,129,126,127,128,129,128,0
4251,125,128,127,128,121,125,128,127,0
4255,127,128,127,128,129,129,129,127,0
4258,127,128,127,128,127,129,129,128,0
4261,128,128,127,127,128,129,128,128,0
4264,127,127,129,127,125,126,123,126,0
4268,130,127,128,132,129,128,124,127,0
4272,126,126,128,126,129,129,129,128,0
4276,126,127,127,129,129,129,128,128,0
4279,127,129,127,126,127,125,127,127,0
4286,127,128,127,126,127,127,127,128,0
4289,126,128,128,128,127,129,128,127,0
4294,128,126,128,129,127,128,127,128,0
4299,128,128,128,125,126,125,127,127,0
4303,127,127,128,126,127,128,126,128,0
4310,127,128,127,128,128,126,127,128,0
4314,128,128,128,128,128,127,127,127,0
4317,128,126,129,127,129,124,122,125,0
4322,131,125,127,130,131,127,124,126,0
4325,130,127,127,129,125,127,128,126,0
4328,128,128,128,127,127,127,128,127,0
4332,131,128,128,126,126,127,128,128,0
4335,127,128,129,128,128,127,127,128,0
4339,129,128,128,128,127,128,128,127,0
4342,128,129,126,127,128,126,128,128,0
4345,126,128,128,126,126,123,128,128,0
4349,127,127,127,126,124,126,125,126,0
4352,131,127,127,131,126,126,125,125,0
4355,127,128,126,126,128,129,127,127,0
4359,128,128,130,128,127,128,129,128,0
4362,126,128,130,127,127,127,127,128,0
4364,127,128,127,127,127,129,129,128,0
4368,126,128,127,129,127,128,128,127,0
4371,127,128,125,129,127,127,126,127,0
4375,128,126,126,129,128,127,124,126,0
4379,128,126,132,131,129,128,125,128,0
4381,125,130,125,129,133,129,129,128,0
4384,127,128,127,128,129,127,129,128,0
4387,128,127,131,129,125,128,128,127,0
4390,128,124,129,125,128,129,128,128,0
4392,128,128,125,127,127,129,128,128,0
4395,127,130,122,125,127,127,127,128,0
4400,127,127,126,125,125,128,122,126,0
4403,133,126,129,129,128,127,128,130,0
4408,124,129,130,126,128,128,128,128,0
4414,126,127,127,125,129,128,130,128,0
4419,126,128,124,125,129,127,129,128,0
4422,128,127,136,128,128,128,128,128,0
4425,128,128,129,129,127,128,128,128,0
4428,127,128,128,128,127,128,128,128,0
4430,127,126,130,133,128,127,123,125,0
4434,130,127,126,132,129,129,125,127,0
4437,130,128,124,128,129,128,128,128,0
4441,128,128,127,128,127,128,128,128,0
4444,126,129,127,128,128,127,129,129,0
4448,124,128,127,126,123,128,127,128,0
4451,128,127,127,129,127,128,128,128,0
4454,127,128,127,128,126,128,128,128,0
4457,128,128,128,127,125,124,125,125,0
4460,130,126,127,130,129,128,123,126,0
4464,129,127,129,126,130,128,128,128,0
4468,127,128,129,126,129,129,128,128,0
4471,126,128,128,126,125,127,129,127,0
4474,128,127,128,126,128,128,129,127,0
4478,125,129,128,128,129,129,128,128,0
4481,127,128,127,129,127,127,128,127,0
4485,128,128,128,130,127,126,128,128,0
4488,129,126,128,134,129,129,122,125,0
4491,128,127,129,129,126,128,128,127,0
4495,131,128,131,128,129,129,129,129,0
4498,126,128,123,124,129,127,130,128,0
4501,125,126,126,124,129,127,128,129,0
4504,126,128,128,125,128,128,129,128,0
4508,127,129,128,126,127,128,128,128,0
4511,126,128,130,126,127,124,124,125,0
4516,131,126,125,129,128,128,124,126,0
4522,128,127,125,125,128,129,128,128,0
4529,128,128,128,125,128,127,128,128,0
4533,127,129,131,126,128,127,131,128,0
4536,128,128,116,126,128,126,129,126,0
4539,129,128,118,128,127,127,128,129,0
4542,127,125,139,129,129,129,128,128,0
4545,127,127,132,126,127,127,128,129,0
4549,127,127,127,126,128,126,129,128,0
4552,126,127,130,127,128,127,128,128,0
4556,127,128,129,128,127,128,128,127,0
4559,128,127,129,126,126,127,128,127,0
4563,128,127,127,126,125,124,128,128,0
4566,129,127,127,131,127,127,125,126,0
4569,132,123,130,130,125,129,129,128,0
4573,124,132,123,126,129,128,128,128,0
4576,128,127,127,127,127,128,129,128,0
4580,126,128,127,127,129,129,128,128,0
4583,129,127,127,130,129,129,128,128,0
4587,126,129,125,128,128,127,128,128,0
4590,127,127,134,133,129,128,123,126,0
4594,130,127,123,129,129,127,125,127,0
4597,127,129,126,128,130,129,129,128,0
4600,126,128,125,125,128,129,130,128,0
4604,128,127,131,127,130,127,129,128,0
4609,127,128,131,127,126,128,128,128,0
4612,129,127,125,129,128,128,127,128,0
4619,127,128,128,128,127,127,127,127,0
4624,129,127,124,129,128,129,123,126,0
4629,128,127,128,128,123,129,129,128,0
4633,127,127,128,126,127,129,129,127,0
4636,127,128,128,126,128,128,130,128,0
4642,128,128,129,126,126,126,129,128,0
4646,127,127,132,131,126,127,128,127,0
4650,128,127,127,125,129,129,128,128,0
4653,127,128,125,128,125,128,128,128,0
4655,126,127,129,127,125,126,127,128,0
4659,126,124,129,133,128,128,123,125,0
4661,130,129,127,127,128,127,128,127,0
4665,127,128,126,128,130,128,127,127,0
4669,128,125,135,127,127,125,127,127,0
4672,128,126,129,126,129,128,128,128,0
4675,128,128,124,129,129,129,128,128,0
4679,126,129,127,127,129,127,128,128,0
4683,127,127,128,128,126,124,127,128,0
4686,126,127,131,126,126,126,126,128,0
4690,127,129,121,133,127,129,127,128,0
4693,128,129,128,130,128,128,127,127,0
4696,128,128,128,127,124,126,123,126,0
4700,128,129,128,131,129,128,123,126,0
4703,130,126,127,123,128,130,129,128,0
4707,127,128,128,130,129,127,129,127,0
4710,128,127,132,124,129,128,129,128,0
4713,126,128,126,129,129,126,129,128,0
4716,126,127,126,127,128,127,128,128,0
4720,127,127,127,127,128,127,128,128,0
4723,127,126,131,127,123,125,128,127,0
4726,127,127,124,126,126,125,128,128,0
4730,128,127,133,128,127,127,127,128,0
4733,127,128,128,124,129,128,129,128,0
4736,127,127,129,132,125,125,127,127,0
4740,127,127,125,122,128,128,123,126,0
4744,130,128,125,129,129,127,126,128,0
4748,128,128,130,122,128,128,128,127,0
4751,128,127,123,124,130,128,128,128,0
4754,127,128,128,128,128,126,128,128,0
4757,126,127,126,128,127,128,128,129,0
4760,128,127,128,128,128,127,128,127,0
4763,128,128,126,130,127,123,123,124,0
4766,130,127,129,130,128,129,123,126,0
4770,129,127,128,130,123,130,129,129,0
4773,127,128,124,127,127,129,129,128,0
4776,127,127,129,122,129,128,130,128,0
4779,127,128,127,130,129,128,130,128,0
4783,128,128,126,130,127,128,129,129,0
4786,127,127,127,127,128,129,129,128,0
4789,127,129,127,127,129,128,130,128,0
4792,126,127,128,124,128,127,126,127,0
4795,130,127,127,133,128,129,124,127,0
4799,128,128,128,129,128,129,128,128,0
4802,127,128,124,126,129,128,129,128,0
4805,127,127,128,127,125,126,128,128,0
4808,128,128,129,127,127,128,128,127,0
4813,126,128,128,129,127,128,128,127,0
4816,128,128,128,129,126,127,128,128,0
4820,127,126,131,127,126,126,129,128,0
4823,127,128,128,128,126,129,126,127,0
4826,129,128,126,127,129,129,127,127,0
4830,128,129,126,127,127,127,129,127,0
4834,127,128,127,128,128,129,123,126,0
4839,129,128,126,128,127,130,123,125,0
4843,131,127,128,126,128,129,129,127,0
4851,127,128,124,124,128,129,129,128,0
4854,128,128,128,126,129,127,129,128,0
4857,127,128,128,127,129,127,128,127,0
4860,127,128,128,129,128,128,128,128,0
4864,127,127,126,126,128,127,128,128,0
4866,127,127,127,130,127,127,123,125,0
4869,131,126,128,129,128,127,124,125,0
4873,127,128,127,125,129,127,128,127,0
4876,127,128,128,126,129,128,128,128,0
4880,127,128,127,126,128,127,129,127,0
4883,126,128,129,125,128,127,128,128,0
4887,128,128,127,127,129,127,127,128,0
4890,127,128,128,124,127,127,127,127,0
4894,128,127,128,132,127,128,128,128,0
4897,126,127,128,130,126,127,124,127,0
4900,128,127,127,131,126,127,123,127,0
4903,128,129,127,127,128,128,129,128,0
4907,128,128,128,127,128,127,127,127,0
4910,130,126,130,132,127,128,123,126,0
4913,129,127,125,128,129,128,130,128,0
4920,127,129,129,126,129,128,129,128,0
4923,127,128,129,128,129,127,129,128,0
4927,126,128,126,128,128,127,129,127,0
4930,127,128,128,128,125,128,127,128,0
4933,127,128,126,129,126,128,128,127,0
4935,127,128,126,127,127,125,128,127,0
4938,127,127,128,128,126,125,125,126,0
4943,129,127,125,129,126,126,127,128,0
4946,127,129,127,128,127,129,128,128,0
4950,127,128,127,125,129,128,129,128,0
4956,127,127,127,128,129,127,129,127,0
4960,126,128,127,129,128,128,129,128,0
4963,127,128,126,129,128,128,128,127,0
4966,127,128,128,128,126,126,127,126,0
4969,129,127,128,131,127,128,123,126,0
4972,129,127,127,130,126,127,127,128,0
4975,128,128,128,126,129,128,129,128,0
4979,127,128,128,125,128,127,130,128,0
4983,127,128,130,124,127,127,129,127,0
4987,127,125,128,126,128,128,127,128,0
4990,128,128,128,126,128,128,128,128,0
4993,127,128,127,128,127,127,127,128,0
4996,126,128,128,128,123,126,129,127,0
4999,126,127,127,129,129,126,128,128,0
5002,128,129,128,129,129,128,128,128,0
5006,127,128,128,128,126,127,127,128,0
5010,126,125,128,131,128,127,123,126,0
5013,130,127,127,131,128,127,125,126,0
5016,128,129,127,128,130,128,129,128,0
5019,128,128,127,128,129,127,129,128,0
5022,126,127,129,128,128,128,130,128,0
5025,126,128,128,125,128,128,129,128,0
5029,127,128,126,128,128,129,128,128,0
5032,126,129,128,127,128,128,128,128,0
5035,126,127,128,126,123,126,127,128,0
5038,127,127,128,128,127,129,128,128,0
5041,126,128,128,128,128,128,128,128,0
5044,128,128,128,128,126,127,128,127,0
5047,129,127,128,129,128,129,123,126,0
5051,130,127,127,129,128,128,123,126,0
5057,126,128,128,127,129,129,128,128,0
5060,127,128,127,126,127,129,129,128,0
5064,127,128,129,126,128,127,129,128,0
5070,127,128,127,128,127,128,129,128,0
5067,127,128,127,125,127,127,129,128,0
5073,127,128,128,129,127,127,130,128,0
5077,127,128,128,127,125,125,124,126,0
5079,129,127,128,131,127,128,124,127,0
5083,128,126,130,127,129,129,130,127,0
5087,127,129,127,128,129,129,129,127,0
5090,126,128,127,125,129,128,130,128,0
5094,126,128,126,126,129,128,129,128,0
5099,128,127,127,127,127,128,128,128,0
5102,128,128,126,129,126,128,128,128,0
5105,127,127,128,126,127,126,128,128,0
5110,125,125,126,131,127,128,123,126,0
5114,129,128,127,129,127,130,128,128,0
5116,128,128,129,127,128,128,129,128,0
5119,127,128,127,125,128,128,129,128,0
5122,127,127,129,125,128,127,129,128,0
5126,127,128,127,128,126,127,127,127,0
5130,127,128,127,128,127,127,129,128,0
5133,127,127,127,127,124,126,123,126,0
5136,130,126,127,132,127,128,123,125,0
5139,130,126,127,128,131,129,128,127,0
5142,129,127,128,127,128,128,129,127,0
5145,128,128,129,125,128,128,131,129,0
5149,126,128,127,125,126,127,129,128,0
5152,127,130,126,127,127,128,127,127,0
5155,127,129,126,129,126,128,128,128,0
5160,126,128,127,126,128,127,128,127,0
5164,126,128,127,126,127,125,124,126,0
5168,128,126,128,131,126,126,124,127,0
5171,126,128,129,127,127,129,128,128,0
5174,127,128,127,127,128,126,128,128,0
5178,127,126,127,130,127,128,123,126,0
5182,128,126,128,128,121,129,130,129,0
5186,127,128,130,128,131,128,129,129,0
5189,126,128,129,126,128,128,130,128,0
5195,127,127,127,126,127,127,129,128,0
5200,126,129,127,127,127,127,128,128,0
5204,128,128,128,128,127,126,127,128,0
5209,127,128,127,127,125,125,128,128,0
5212,129,127,127,127,123,123,128,129,0
5216,126,126,130,128,127,125,128,128,0
5223,129,128,128,129,128,129,129,128,0
5226,127,128,126,127,125,125,126,126,0
5230,129,127,128,131,128,129,124,125,0
5233,130,127,127,131,129,128,127,128,0
5237,127,128,127,129,130,129,129,128,0
5240,127,128,127,126,128,127,130,128,0
5244,129,126,127,128,131,127,129,128,0
5247,128,128,127,125,125,128,128,128,0
5250,128,128,128,128,127,129,128,128,0
5253,128,128,126,127,129,129,127,128,0
5257,128,128,127,126,126,125,123,125,0
5260,131,126,128,131,128,128,123,126,0
5264,126,128,128,126,129,129,129,128,0
5267,127,127,128,128,128,128,130,129,0
5271,127,127,129,124,127,127,129,127,0
5280,128,125,128,125,126,128,128,127,0
5283,126,130,126,126,126,128,128,128,0
5287,126,130,126,125,128,128,127,129,0
5290,126,128,126,127,124,125,124,127,0
5293,128,126,127,129,126,126,125,126,0
5296,127,126,126,128,128,129,129,128,0
5300,127,128,128,126,127,128,130,128,0
5303,128,127,128,127,126,126,126,127,0
5306,127,126,129,126,127,128,128,128,0
5310,126,128,127,127,127,128,127,128,0
5313,127,128,128,127,129,128,127,128,0
5316,127,127,128,127,125,126,128,128,0
5319,128,127,127,128,125,126,128,128,0
5322,126,127,127,127,129,127,129,127,0
5325,127,128,127,128,127,128,127,127,0
5328,127,127,128,131,128,128,123,125,0
5331,129,126,127,129,128,129,123,125,0
5334,129,127,127,128,129,129,128,127,0
5338,128,127,127,128,131,127,127,128,0
5342,127,128,127,125,127,127,130,129,0
5345,127,128,130,125,125,127,130,128,0
5348,127,128,128,127,128,128,128,127,0
5351,127,128,128,127,128,128,128,128,0
5354,127,128,127,126,127,127,127,128,0
5358,126,126,127,129,127,128,123,126,0
5362,130,127,127,129,124,129,129,128,0
5365,127,128,129,125,129,129,129,127,0
5368,127,128,129,125,127,127,127,128,0
5370,126,126,129,127,128,127,128,128,0
5375,129,128,127,125,128,128,128,127,0
5380,129,127,127,126,127,129,128,128,0
5384,127,128,127,125,127,126,127,128,0
5390,128,127,127,129,128,128,124,126,0
5394,129,126,128,128,125,126,130,128,0
5398,128,127,130,124,128,128,129,128,0
5401,127,129,125,126,129,127,128,129,0
5404,125,128,125,124,126,127,131,128,0
5406,127,128,127,125,126,128,129,128,0
5409,127,129,127,126,127,128,129,128,0
5412,127,128,127,126,128,127,128,128,0
5415,127,128,128,125,126,126,128,127,0
5419,127,128,130,127,129,128,129,128,0
5424,127,128,127,127,128,128,127,127,0
5426,129,128,126,129,127,125,125,127,0
5430,130,127,127,131,129,128,123,126,0
5433,131,126,127,131,128,127,128,128,0
5436,128,128,126,127,128,128,129,128,0
5439,128,128,127,127,124,126,128,128,0
5442,127,128,129,127,124,127,129,128,0
5445,130,128,130,128,127,128,128,127,0
5447,129,127,128,128,126,129,128,129,0
5451,126,129,126,128,127,128,128,128,0
5455,125,128,127,127,126,127,128,127,0
5459,126,128,129,128,127,128,129,127,0
5463,128,129,128,129,128,127,128,128,0
5466,127,127,127,128,127,127,128,128,0
5469,128,127,126,131,128,128,123,126,0
5473,129,127,128,130,128,128,124,127,0
5476,125,128,129,127,128,129,130,128,0
5479,126,129,128,129,128,128,129,129,0
5483,129,128,128,126,126,126,128,128,0
5487,127,128,127,128,127,127,129,128,0
5491,127,129,126,127,127,128,128,128,0
5497,128,128,128,127,127,129,128,128,0
5500,127,129,129,127,127,125,128,128,0
5503,127,127,126,131,130,130,123,126,0
5506,130,128,127,126,128,128,129,128,0
5509,128,127,128,128,128,127,129,128,0
5512,127,129,128,126,128,127,129,128,0
5515,127,126,129,126,127,127,128,128,0
5518,127,128,129,127,128,128,127,128,0
5527,127,129,127,129,128,128,128,128,0
5530,128,127,128,128,125,125,126,127,0
5534,131,126,128,131,129,129,123,126,0
5537,129,128,127,130,126,129,130,129,0
5541,127,128,127,126,127,129,130,128,0
5544,127,128,127,126,128,128,129,129,0
5548,127,127,127,126,125,128,127,128,0
5551,129,129,128,129,128,128,128,128,0
5554,127,128,128,129,128,129,129,128,0
5559,127,128,127,129,127,127,129,128,0
5562,127,126,132,126,128,127,127,127,0
5565,129,126,128,126,129,128,127,128,0
5569,125,131,126,128,128,129,127,128,0
5572,126,128,128,127,124,128,123,126,0
5576,129,126,128,130,130,128,123,126,0
5579,130,126,126,127,131,129,130,128,0
5583,127,128,127,128,129,128,129,128,0
5586,126,128,128,126,127,127,130,128,0
5590,127,126,130,127,128,127,129,127,0
5593,128,129,127,127,127,128,127,128,0
5597,127,128,127,128,126,128,128,128,0
5601,126,128,127,128,126,124,129,128,0
5605,125,127,128,128,123,126,128,127,0
5611,128,129,128,128,125,126,127,127,0
5614,127,128,127,129,129,128,128,127,0
5617,129,127,128,128,127,128,128,126,0
5620,131,126,127,131,128,129,124,126,0
5623,129,126,127,130,127,126,131,128,0
5626,126,129,126,126,127,129,129,127,0
5629,127,128,128,125,129,128,129,128,0
5633,127,127,128,125,128,128,127,128,0
5636,128,126,128,125,128,128,128,127,0
5638,128,127,129,128,128,129,127,128,0
5641,126,129,126,126,128,127,127,128,0
5644,127,129,126,125,127,128,127,128,0
5647,125,128,128,128,121,125,127,128,0
5650,128,128,127,127,126,129,127,128,0
5653,127,127,128,127,127,129,126,127,0
5656,128,126,128,131,129,128,122,126,0
5660,129,127,128,130,128,127,125,127,0
5663,128,128,130,128,131,130,129,128,0
5665,128,128,128,124,126,128,130,128,0
5669,127,127,128,124,127,126,129,128,0
5672,126,127,130,127,128,126,129,129,0
5675,127,128,127,126,127,128,128,128,0
5679,128,128,127,127,127,129,128,128,0
5682,127,126,127,126,125,125,128,127,0
5685,128,127,127,130,127,128,123,126,0
5689,131,128,127,128,128,129,129,128,0
5693,126,128,127,126,127,128,130,128,0
5695,127,128,127,125,127,126,129,128,0
5699,127,127,128,126,127,127,129,128,0
5704,128,127,127,127,126,127,129,128,0
5709,127,128,126,129,126,127,128,128,0
5712,128,128,128,128,126,125,128,127,0
5715,127,127,127,127,124,126,128,127,0
5718,127,128,125,128,128,127,128,128,0
5721,126,128,126,128,128,126,128,128,0
5724,127,127,131,128,127,126,126,126,0
5727,130,127,126,131,129,129,123,126,0
5730,129,127,127,130,128,127,126,128,0
5732,128,129,130,127,129,129,129,129,0
5736,127,128,131,125,127,127,128,125,0
5739,124,129,122,127,129,127,129,127,0
5742,128,127,128,127,127,128,128,127,0
5745,129,127,127,128,127,126,128,128,0
5748,128,128,128,128,126,124,128,127,0
5752,128,127,128,129,128,128,123,125,0
5756,129,127,127,131,126,125,129,128,0
5759,128,128,130,127,127,127,129,128,0
5762,127,127,127,126,128,126,129,128,0
5765,128,126,126,130,127,126,125,127,0
5769,128,128,126,128,130,129,129,129,0
5772,125,129,128,128,128,128,129,128,0
5775,127,129,126,127,128,127,128,128,0
5780,127,127,130,128,130,126,128,128,0
5783,131,124,128,127,129,127,127,128,0
5785,128,128,126,128,128,128,128,129,0
5789,125,128,127,127,128,126,128,127,0
5792,128,126,128,130,128,128,123,126,0
5795,130,127,127,129,125,127,130,127,0
5801,127,127,128,125,129,128,129,127,0
5805,127,130,128,124,127,127,128,128,0
5810,126,128,128,124,126,126,128,128,0
5814,126,128,128,126,127,129,129,128,0
5818,127,128,127,127,127,127,128,128,0
5822,128,128,128,127,127,127,129,128,0
5828,126,127,126,130,129,128,123,125,0
5831,131,127,126,131,127,126,126,127,0
5834,129,129,127,128,127,129,129,128,0
5838,126,129,125,126,128,128,129,128,0
5842,125,129,127,126,127,127,129,127,0
5844,129,125,130,126,128,128,130,127,0
5847,129,126,126,129,127,128,128,126,0
5850,128,127,128,128,128,128,129,129,0
5855,128,126,128,127,128,127,129,128,0
5860,128,129,126,130,127,130,124,128,0
5863,124,129,127,126,129,128,128,128,0
5868,127,128,127,127,129,129,129,128,0
5871,127,128,128,125,129,125,129,128,0
5874,127,127,128,128,127,128,128,128,0
5878,128,128,129,129,129,129,128,128,0
5881,127,128,129,129,126,127,128,127,0
5885,127,126,127,128,128,127,125,127,0
5888,129,127,127,131,128,129,124,126,0
5891,130,127,126,127,127,127,128,128,0
5894,127,128,127,128,128,128,128,128,0
5897,127,128,127,126,128,126,127,128,0
5900,124,128,128,128,128,127,129,128,0
5902,126,128,127,127,127,127,128,127,0
5905,128,128,128,128,128,129,128,128,0
5909,127,127,126,127,126,125,128,127,0
5912,131,125,127,131,129,130,123,126,0
5915,128,127,127,129,130,129,129,129,0
5920,125,129,127,125,128,128,128,129,0
5926,127,127,127,125,127,127,129,128,0
5929,125,127,127,126,128,127,129,128,0
5933,126,127,128,127,128,128,128,128,0
5937,127,129,127,128,128,129,128,128,0
5941,127,128,127,128,127,127,126,127,0
5944,132,125,127,129,127,129,124,126,0
5948,130,127,126,128,126,128,130,127,0
5951,128,128,128,128,127,128,129,127,0
5954,127,128,129,127,128,127,129,128,0
5957,126,128,128,125,126,126,128,128,0
5961,127,128,128,128,128,127,129,128,0
5966,128,128,126,127,128,127,128,127,0
5968,127,127,128,127,127,124,124,126,0
5971,130,127,130,131,129,128,124,125,0
5974,130,127,126,127,128,129,130,129,0
5977,128,127,128,126,127,129,130,128,0
5979,128,128,128,127,128,128,128,127,0
5982,126,128,129,128,127,126,128,129,0
5985,123,130,123,127,127,127,128,128,0
5988,128,127,129,128,127,128,128,129,0
5991,127,128,125,127,128,127,129,129,0
5994,127,127,130,127,127,125,128,128,0
5997,127,128,128,126,127,128,127,128,0
6001,128,127,127,128,129,126,128,127,0
6004,128,128,128,127,124,124,124,126,0
6008,129,126,127,130,125,126,125,127,0
6012,128,127,127,128,126,128,126,127,0
6016,130,129,128,127,129,129,128,128,0
6019,128,128,128,128,128,127,129,128,0
6023,126,127,130,126,127,126,128,128,0
6027,128,127,129,127,127,127,128,127,0
6032,128,128,127,127,130,130,129,128,0
6037,129,128,127,127,129,129,128,128,0
6041,126,126,127,125,126,129,122,126,0
6046,129,128,127,130,129,130,124,127,0
6050,126,128,130,127,128,130,130,128,0
6053,128,127,124,124,129,128,129,128,0
6056,127,126,130,126,128,127,129,128,0
6059,127,128,127,127,127,128,129,128,0
6062,126,128,125,128,127,127,128,127,0
6065,128,128,131,128,127,127,127,127,0
6068,131,124,128,127,127,126,128,128,0
6071,124,128,128,127,125,127,127,128,0
6075,126,129,127,128,128,128,129,128,0
6078,125,128,127,128,126,127,128,128,0
6081,127,126,127,128,126,127,123,126,0
6084,129,127,127,131,128,127,123,126,0
6087,130,126,128,128,129,128,128,127,0
6090,128,127,132,128,127,128,130,127,0
6093,126,128,126,124,129,127,128,128,0
6097,128,127,128,128,126,126,127,128,0
6100,128,125,130,128,127,127,128,128,0
6104,128,127,124,123,128,128,128,129,0
6110,125,128,128,126,126,125,122,126,0
6114,132,124,126,128,129,128,126,125,0
6118,126,130,129,127,130,129,129,128,0
6121,127,128,128,128,129,129,128,127,0
6127,128,128,129,127,127,126,129,128,0
6130,127,128,128,127,128,127,125,128,0
6134,127,128,127,128,128,127,127,128,0
6139,128,128,126,128,128,129,127,128,0
6143,126,128,127,129,125,124,124,127,0
6148,129,127,128,132,128,128,124,127,0
6153,128,127,128,126,128,129,130,128,0
6157,127,127,128,127,126,127,128,127,0
6161,129,125,129,126,128,128,129,129,0
6164,125,128,126,126,127,127,129,128,0
6167,127,128,125,127,129,129,127,128,0
6171,127,128,128,129,129,128,129,128,0
6174,127,128,127,127,126,126,129,128,0
6178,127,127,129,129,124,126,128,126,0
6181,127,127,128,124,127,127,127,128,0
6184,128,129,126,128,127,129,128,128,0
6188,126,128,128,127,127,126,126,125,0
6191,130,127,131,128,129,128,124,126,0
6193,129,128,125,126,123,128,129,127,0
6197,129,128,127,129,130,129,129,128,0
6201,126,127,127,133,128,129,130,127,0
6204,128,125,132,128,122,126,123,124,0
6207,134,126,123,129,126,131,129,130,0
6212,124,130,124,125,130,130,129,129,0
6215,126,129,124,126,130,128,129,128,0
6217,126,128,127,125,127,128,129,128,0
6220,127,128,127,126,128,128,128,127,0
6223,127,128,128,128,129,129,127,128,0
6226,127,128,127,128,128,127,128,128,0
6230,127,126,127,129,128,128,123,127,0
6234,129,127,128,130,125,123,129,128,0
6237,128,128,131,131,127,129,128,127,0
6240,130,126,125,126,128,128,129,128,0
6243,128,128,127,126,127,125,128,127,0
6246,128,127,128,128,127,128,129,128,0
6251,125,129,127,126,127,129,129,129,0
6255,125,129,127,127,128,128,128,128,0
6259,127,128,128,128,128,128,123,126,0
6262,129,127,128,130,128,127,125,127,0
6264,128,129,129,126,128,128,128,127,0
6269,127,128,127,125,128,128,129,128,0
6272,127,128,128,125,127,127,131,128,0
6276,128,127,130,128,125,127,128,128,0
6280,128,127,128,129,128,126,128,127,0
6282,128,128,124,129,129,128,129,128,0
6285,126,127,132,129,126,126,128,127,0
6290,128,126,125,129,128,127,123,127,0
6293,131,126,127,124,129,128,128,128,0
6297,126,128,129,128,126,126,128,127,0
6300,129,126,125,122,124,127,124,128,0
6304,128,127,127,129,127,128,125,127,0
6307,126,129,127,129,129,129,129,128,0
6311,128,129,127,127,128,128,128,128,0
6314,128,128,131,125,129,128,130,128,0
6317,126,128,127,125,129,128,129,128,0
6320,127,128,127,130,127,128,128,127,0
6323,127,128,126,126,129,128,128,128,0
6326,126,128,126,125,127,126,127,127,0
6330,130,127,126,130,129,128,123,126,0
6333,130,125,128,126,129,129,129,128,0
6336,126,128,129,128,129,128,128,128,0
6339,127,128,128,126,128,127,129,128,0
6342,127,127,127,128,126,126,128,127,0
6346,128,128,127,127,129,128,128,128,0
6349,129,128,125,128,128,129,128,128,0
6353,127,128,128,128,127,127,128,128,0
6359,127,126,129,132,128,128,123,127,0
6363,130,127,125,130,126,129,127,128,0
6369,127,126,130,127,128,129,128,128,0
6372,128,128,123,130,128,129,130,128,0
6375,127,128,126,120,128,128,127,128,0
6379,128,127,129,129,127,128,128,128,0
6382,127,129,127,128,126,128,128,128,0
6385,127,128,128,129,125,124,123,126,0
6389,130,126,129,133,126,127,123,125,0
6391,130,127,127,129,129,128,129,127,0
6396,128,129,125,127,129,128,128,128,0
6399,128,127,130,126,128,127,129,128,0
6402,127,127,127,128,127,125,129,128,0
6408,128,126,130,129,126,125,128,128,0
6411,126,130,126,125,129,128,128,128,0
6415,127,129,127,126,129,128,129,128,0
6420,127,127,127,125,126,126,128,128,0
6424,126,127,127,129,127,128,127,128,0
6428,127,128,126,122,128,128,128,127,0
6433,126,128,127,132,127,127,128,128,0
6437,127,126,129,131,128,128,123,126,0
6440,131,128,125,130,126,127,124,127,0
6445,126,128,128,125,128,128,129,128,0
6449,127,128,130,130,130,127,129,128,0
6455,127,127,128,120,129,127,129,128,0
6459,127,127,126,127,126,125,129,126,0
6463,128,127,135,131,128,129,129,128,0
6467,126,130,122,124,128,127,128,128,0
6470,126,128,129,132,125,127,123,126,0
6474,129,127,121,129,129,128,127,129,0
6478,126,129,126,125,129,129,129,128,0
6484,127,128,127,129,129,128,129,128,0
6488,127,128,127,124,127,125,129,129,0
6491,127,128,127,124,129,128,128,128,0
6494,128,128,127,127,128,129,128,128,0
6498,127,128,127,127,128,128,128,127,0
6501,129,127,127,122,125,126,129,128,0
6504,128,127,127,129,127,128,127,127,0
6508,129,128,131,131,128,128,128,127,0
6511,128,127,126,123,128,128,129,128,0
6515,127,126,125,128,127,128,123,125,0
6519,130,127,127,131,129,127,123,126,0
6522,127,127,131,127,128,129,128,128,0
6525,128,128,126,123,129,129,128,128,0
6529,127,125,132,133,125,126,129,129,0
6532,129,128,129,121,128,129,128,128,0
6536,127,128,126,127,128,129,128,128,0
6540,127,128,127,127,126,129,129,128,0
6543,127,129,128,126,125,126,128,127,0
6547,127,127,129,126,128,129,129,128,0
6550,128,127,127,127,127,128,128,127,0
6553,128,128,129,130,126,127,127,127,0
6557,127,127,129,124,125,124,123,126,0
6562,130,127,126,130,128,127,123,125,0
6565,130,126,126,130,130,128,129,128,0
6571,127,128,127,128,128,129,129,128,0
6574,127,127,127,127,127,126,129,128,0
6578,129,128,127,128,128,127,130,128,0
6581,127,127,127,129,129,128,128,128,0
6584,126,128,127,127,128,129,128,128,0
6587,126,128,126,130,127,125,129,128,0
6591,126,125,129,132,128,128,123,126,0
6597,129,127,128,132,126,125,130,128,0
6602,127,129,127,128,129,129,129,128,0
6605,127,127,129,128,130,129,128,128,0
6609,126,128,128,128,128,127,129,128,0
6612,127,127,128,130,128,129,128,128,0
6615,127,129,127,128,128,128,128,128,0
6619,128,129,130,127,128,128,127,128,0
6622,127,127,127,129,128,128,123,126,0
6626,130,126,128,131,129,128,128,129,0
6629,128,129,128,126,127,128,129,128,0
6632,127,128,129,128,128,127,127,128,0
6636,127,128,130,126,129,128,130,128,0
6640,127,127,127,128,127,127,128,127,0
6643,130,128,127,127,127,128,127,128,0
6646,126,128,127,126,125,126,128,128,0
6649,127,128,127,131,127,128,123,126,0
6652,130,127,129,131,126,127,126,128,0
6655,127,128,130,128,127,128,129,128,0
6658,126,128,127,128,126,126,128,128,0
6661,124,128,126,128,128,126,130,128,0
6664,128,127,128,128,128,128,128,128,0
6666,128,128,128,128,127,129,128,127,0
6670,128,128,127,128,131,127,128,128,0
6673,127,125,128,130,127,128,123,126,0
6676,130,127,126,130,128,129,124,128,0
6680,127,128,129,128,131,129,129,127,0
6684,127,128,127,127,130,130,131,128,0
6687,126,128,127,124,125,125,128,128,0
6691,127,129,127,127,128,128,129,127,0
6695,127,128,130,126,127,127,128,128,0
6698,127,129,129,128,127,126,129,128,0
6702,126,128,127,130,129,128,124,126,0
6709,129,126,127,131,128,129,123,127,0
6713,127,128,127,127,131,130,131,127,0
6715,127,128,127,124,127,126,128,128,0
6720,126,126,127,127,129,127,129,129,0
6722,127,127,129,127,131,127,128,128,0
6725,127,128,126,126,129,128,128,127,0
6728,128,128,127,126,127,127,128,128,0
6736,127,128,128,125,126,126,127,127,0
6739,128,125,127,126,127,127,127,128,0
6743,128,128,127,127,127,129,128,127,0
6746,127,129,127,127,127,127,129,127,0
6750,127,128,128,132,128,129,123,126,0
6754,130,127,127,130,129,130,124,126,0
6757,131,127,129,129,129,131,131,128,0
6760,127,129,129,128,130,131,128,129,0
6764,127,129,128,125,125,126,128,128,0
6767,127,126,130,125,129,127,129,128,0
6770,127,128,127,125,127,128,128,128,0
6773,127,128,126,127,127,127,128,128,0
6775,127,128,127,125,125,126,129,127,0
6780,127,127,127,126,127,126,127,127,0
6783,128,128,126,127,128,126,128,127,0
6785,127,128,127,128,128,127,128,127,0
6789,128,128,127,129,125,128,123,126,0
6792,130,127,128,132,127,127,123,126,0
6796,130,127,128,128,128,126,128,128,0
6799,127,128,126,128,130,128,129,128,0
6802,126,127,128,127,130,127,130,128,0
6805,126,126,128,125,127,126,128,128,0
6810,126,128,127,125,126,128,128,127,0
6815,128,128,126,126,127,129,128,128,0
6818,127,128,129,126,127,127,128,127,0
6823,126,127,127,126,127,128,129,127,0
6826,127,127,127,127,127,128,128,128,0
6829,127,128,128,129,126,129,128,128,0
6832,127,128,127,129,126,127,123,126,0
6835,130,127,126,131,128,129,123,126,0
6839,130,127,127,132,129,125,131,129,0
6843,128,129,128,125,128,127,128,128,0
6846,127,128,127,127,129,128,130,128,0
6849,126,128,127,127,130,128,130,129,0
6851,127,128,128,127,128,128,128,128,0
6854,127,128,128,128,127,128,128,128,0
6857,128,128,127,127,126,127,128,127,0
6859,127,127,128,125,123,126,127,128,0
6863,126,127,127,126,127,128,129,128,0
6867,126,128,127,128,128,128,128,128,0
6874,127,128,127,126,127,127,127,127,0
6877,129,126,127,131,129,128,123,126,0
6882,130,127,127,130,127,126,128,126,0
6885,127,128,128,127,130,130,129,128,0
6889,126,128,126,127,128,127,128,128,0
6892,127,127,127,125,127,126,129,128,0
6896,127,126,127,127,126,127,127,128,0
6899,128,128,127,126,126,128,128,128,0
6909,127,127,127,126,126,127,128,128,0
6913,127,127,127,125,126,126,126,127,0
6916,127,127,129,129,121,125,124,126,0
6922,129,127,128,130,124,128,128,127,0
6926,127,128,127,127,128,127,128,127,0
6931,130,127,127,127,124,126,128,127,0
6936,128,127,127,130,126,128,125,127,0
6942,129,127,126,129,125,128,127,128,0
6947,128,127,127,125,129,129,127,127,0
6950,129,128,128,127,127,126,128,127,0
6953,127,127,127,129,127,127,125,127,0
6957,127,127,129,130,130,129,128,128,0
6960,126,128,126,127,128,128,128,128,0
6963,127,127,128,128,129,128,128,127,0
6967,129,127,129,129,126,128,124,128,0
6970,127,128,126,128,128,130,129,128,0
6973,126,128,127,126,128,129,129,128,0
6975,125,128,126,126,126,128,129,128,0
6979,126,127,127,128,127,128,129,127,0
6983,128,127,129,128,127,127,128,128,0
6986,128,128,128,129,129,127,128,127,0
6989,126,128,128,128,126,129,125,126,0
6993,128,127,127,130,128,129,123,126,0
6996,131,127,127,124,128,129,130,129,0
6999,127,129,127,125,128,129,129,128,0
7002,127,127,128,127,128,128,129,128,0
7005,129,128,129,125,128,128,129,128,0
7009,126,130,126,125,127,129,128,127,0
7013,126,130,126,127,126,128,129,127,0
7018,127,128,127,126,129,126,128,128,0
7022,126,127,127,126,127,124,125,127,0
7024,129,126,127,130,127,126,125,129,0
7028,128,128,128,126,130,127,129,129,0
7031,127,129,126,125,129,127,128,128,0
7037,127,127,126,127,126,126,127,127,0
7042,127,127,128,128,126,127,128,128,0
7046,128,128,128,127,129,128,128,128,0
7051,127,128,127,127,125,127,125,126,0
7059,129,127,128,131,129,129,124,126,0
7063,130,126,127,129,125,126,130,129,0
7066,127,128,127,125,130,129,128,128,0
7070,127,129,127,128,131,127,130,128,0
7073,127,125,129,126,126,125,128,128,0
7076,127,126,128,128,129,128,127,127,0
7080,128,128,127,127,128,129,128,128,0
7083,128,127,127,126,126,126,128,127,0
7087,128,126,130,128,125,128,123,126,0
7090,130,127,127,131,127,129,124,126,0
7096,127,129,127,125,127,129,130,128,0
7100,129,130,130,126,127,129,129,128,0
7103,126,126,128,128,130,126,130,128,0
7107,128,127,129,127,130,127,130,128,0
7110,128,128,129,128,128,127,128,127,0
7113,127,131,127,126,126,128,127,128,0
7117,124,126,127,131,129,129,124,126,0
7120,130,128,127,130,128,130,123,128,0
7132,127,129,127,128,128,128,128,127,0
7138,130,129,130,127,125,126,128,128,0
7141,126,128,126,126,128,126,128,127,0
7145,125,128,129,125,128,129,130,128,0
7148,127,128,126,126,129,129,130,129,0
7152,126,129,127,128,129,128,128,128,0
7155,127,125,126,127,126,124,125,128,0
7159,126,130,127,130,127,127,123,126,0
7167,129,128,127,131,124,127,127,127,0
7171,128,126,129,127,129,128,129,129,0
7174,126,128,126,128,128,126,128,127,0
7181,130,125,131,129,127,127,127,127,0
7178,124,129,128,128,126,126,127,127,0
7186,129,130,125,127,126,127,128,128,0
7192,127,131,126,126,127,125,127,127,0
7196,127,126,126,131,130,130,124,126,0
7199,131,127,126,130,123,128,129,126,0
7203,129,129,128,129,127,125,129,128,0
7206,128,129,127,127,127,126,129,126,0
7209,127,127,129,127,128,127,128,127,0
7213,128,126,130,129,128,128,127,128,0
7216,127,128,129,126,128,128,128,128,0
7219,127,128,127,128,128,128,122,126,0
7222,131,126,127,130,130,129,123,126,0
7225,130,127,127,130,125,129,131,128,0
7229,128,127,127,127,127,130,130,128,0
7232,128,129,125,127,130,128,131,129,0
7280,126,127,124,127,129,128,131,129,0
7288,128,129,125,125,128,126,129,128,0
7292,130,129,126,129,130,126,128,128,0
7348,127,127,126,130,125,125,124,127,0
7355,127,127,125,128,127,126,125,126,0
7367,129,128,126,128,131,128,128,127,0
7373,128,128,126,127,126,128,128,128,0
7377,125,128,128,128,127,128,130,128,0
7415,128,126,128,125,124,128,130,129,0
7420,128,127,127,128,126,127,127,127,0
7424,130,128,128,129,128,125,126,127,0
7484,127,125,129,128,129,127,125,127,0
7496,129,128,126,131,131,130,124,125,0
7506,131,127,127,127,129,130,128,129,0
7511,129,129,130,127,127,128,129,127,0
7517,128,129,129,128,127,129,129,128,0
7554,127,129,129,128,126,128,129,128,0
7564,129,124,130,128,127,127,129,129,0
7570,128,129,128,129,126,127,128,128,0
7620,128,128,128,129,127,127,127,128,0
7633,126,127,127,126,126,124,129,128,0
7643,127,127,130,129,123,126,127,128,0
7649,129,128,130,127,125,127,127,128,0
7654,125,132,128,126,126,127,128,127,0
7659,131,126,125,131,129,128,123,126,0
7664,130,126,127,129,124,129,131,129,0
7668,126,128,126,127,128,130,130,128,0
7674,127,127,131,128,127,125,127,127,0
7680,128,129,130,131,129,128,123,127,0
7684,123,129,127,126,129,128,130,129,0
7688,125,127,125,127,131,129,129,128,0
7691,125,127,127,128,128,129,129,128,0
7695,127,127,124,125,125,126,130,128,0
7698,124,127,125,125,128,127,129,128,0
7701,127,127,128,129,128,128,128,127,0
7705,127,128,130,127,127,127,127,128,0
7708,128,127,128,128,127,125,128,127,0
7712,127,127,127,126,127,127,128,128,0
7715,127,127,127,129,128,128,127,127,0
7718,128,128,128,127,126,128,129,128,0
7722,127,127,131,131,128,127,123,125,0
7727,130,128,127,130,129,129,124,125,0
7732,131,127,126,127,129,131,130,128,0
7736,127,129,128,126,128,128,128,129,0
7739,126,126,129,127,126,125,128,128,0
7743,126,125,128,127,128,125,127,127,0
7746,127,127,128,126,129,128,128,128,0
7749,126,129,127,125,128,128,128,128,0
7753,128,126,129,125,128,126,128,127,0
7756,126,128,129,128,123,127,127,127,0
7759,127,127,129,128,128,129,128,128,0
7762,127,128,129,128,128,128,127,127,0
7764,128,128,128,128,128,127,127,127,0
7767,127,127,127,130,129,129,123,127,0
7770,129,128,129,132,128,125,128,128,0
7773,129,129,127,127,126,127,128,127,0
7777,124,129,126,126,126,125,128,128,0
7780,128,128,127,126,126,126,129,127,0
7783,126,129,126,128,126,128,126,127,0
7786,127,127,128,127,129,128,128,127,0
7790,127,127,128,127,128,126,128,128,0
7793,128,127,127,127,128,127,128,128,0
7796,128,127,127,127,129,128,127,128,0
7799,125,129,127,128,128,128,128,127,0
7802,128,125,127,127,124,125,126,128,0
7805,126,127,128,130,130,129,124,126,0
7819,130,128,127,131,130,130,124,126,0
7823,129,126,128,127,130,130,130,128,0
7829,127,129,127,125,129,128,130,128,0
7832,127,127,127,128,129,127,130,127,0
7836,127,126,128,127,129,127,128,127,0
7840,129,127,126,128,128,129,128,128,0
7889,126,128,127,128,125,128,129,127,0
7899,127,126,129,125,126,127,129,128,0
7903,128,128,127,126,128,129,128,128,0
7907,126,127,127,128,128,129,128,128,0
7911,127,127,128,126,125,124,127,128,0
7914,130,127,126,130,128,128,124,126,0
7917,130,127,126,131,128,127,127,129,0
7921,128,129,128,127,127,128,129,128,0
7924,127,128,128,127,128,128,129,128,0
7927,128,128,129,126,128,127,130,127,0
7931,128,128,130,125,130,128,129,128,0
7934,128,129,126,126,129,128,128,129,0
7938,125,128,128,127,126,125,129,128,0
7941,128,127,128,131,129,129,124,126,0
7945,130,126,127,129,128,127,128,127,0
7948,127,131,131,127,127,128,129,128,0
7952,128,126,127,130,128,128,129,128,0
7955,125,130,124,131,124,127,124,126,0
7958,128,126,126,132,126,126,130,128,0
7962,131,128,127,129,127,128,128,128,0
7965,126,128,130,129,129,129,129,128,0
7968,127,128,128,129,126,126,129,128,0
7972,127,126,128,129,129,127,128,128,0
7975,127,128,128,130,127,128,128,127,0
7979,128,130,127,128,128,126,127,127,0
7982,129,126,129,127,126,127,123,125,0
7985,129,128,126,131,129,128,124,124,0
7989,131,128,128,127,128,129,130,129,0
7992,127,128,129,128,128,128,128,128,0
7997,126,128,130,127,128,126,128,128,0
8003,129,128,129,127,127,127,128,128,0
8007,129,127,127,127,126,128,127,128,0
8010,126,128,127,126,127,127,127,128,0
8014,128,127,128,125,123,125,122,126,0
8022,130,126,127,129,128,128,124,127,0
8026,127,128,128,127,129,130,129,127,0
8029,129,126,130,127,129,127,130,128,0
8033,126,127,128,123,127,126,130,128,0
8036,129,128,128,125,126,127,130,128,0
8039,126,129,127,127,127,128,128,128,0
8043,126,128,128,127,127,128,128,128,0
8046,128,127,129,126,126,125,128,128,0
8049,126,127,129,127,127,126,127,128,0
8053,125,130,126,127,127,128,127,128,0
8056,127,129,128,127,129,129,128,128,0
8059,126,125,128,127,122,127,124,127,0
8062,129,127,127,129,129,127,123,126,0
8066,129,128,129,129,128,123,129,128,0
8069,129,127,128,126,127,129,130,129,0
8072,125,130,126,124,129,128,131,128,0
8090,126,128,127,125,128,128,129,128,0
8098,125,128,127,125,128,128,128,127,0
8102,128,130,127,127,128,128,128,128,0
8105,126,128,128,126,128,127,128,126,0
8109,128,125,129,125,124,127,128,127,0
8112,123,130,126,129,126,127,125,125,0
8116,126,128,127,127,129,128,128,128,0
8119,127,128,127,127,126,126,127,128,0
8124,127,127,129,128,129,124,128,128,0
8128,128,128,128,129,125,128,129,128,0
8132,128,128,128,130,127,128,127,128,0
8158,128,129,127,129,126,126,128,127,0
8170,127,128,127,133,130,128,123,126,0
8176,131,127,128,134,128,126,129,127,0
8181,129,128,127,131,128,129,129,128,0
8185,128,127,128,131,129,127,130,128,0
8189,126,127,128,131,128,126,129,127,0
8227,128,127,127,128,127,128,128,127,0
8243,129,128,127,128,127,129,127,128,0
8249,127,127,128,128,128,128,128,129,0
8254,126,126,129,127,125,127,129,128,0
8259,126,128,128,127,128,128,130,128,0
8263,127,128,128,128,128,128,127,128,0
8267,126,130,128,128,126,124,127,127,0
8272,127,126,125,129,130,129,124,126,0
8276,130,128,126,128,130,130,125,126,0
8279,128,127,128,126,129,128,128,128,0
8283,128,128,128,126,128,127,128,128,0
8286,126,128,128,125,130,127,129,128,0
8290,127,127,128,124,124,128,128,129,0
8293,126,128,127,126,126,127,127,128,0
8296,127,127,127,126,128,128,128,128,0
8300,128,126,127,127,127,128,123,126,0
8303,129,128,127,128,127,127,124,126,0
8307,128,127,128,125,128,128,128,129,0
8310,124,130,128,127,128,127,129,129,0
8313,127,128,128,126,126,125,129,128,0
8317,128,128,129,127,126,126,130,128,0
8327,128,128,127,127,127,127,128,128,0
8321,128,128,127,126,126,128,128,128,0
8331,128,129,129,126,127,127,129,128,0
8334,128,127,127,126,128,127,129,128,0
8337,126,127,126,127,128,128,128,128,0
8341,127,129,127,126,128,128,129,127,0
8344,126,129,127,127,127,126,127,126,0
8347,129,126,129,127,127,126,128,126,0
8350,128,127,126,127,128,128,128,128,0
8354,124,129,127,126,125,126,128,128,0
8357,127,126,127,130,129,130,123,127,0
8360,130,127,127,130,129,129,123,126,0
8364,130,128,127,129,124,129,128,128,0
8367,127,127,128,126,129,129,128,128,0
8370,125,127,128,125,128,127,129,127,0
8373,128,125,129,126,129,129,129,128,0
8376,129,127,128,127,128,128,128,128,0
8379,126,129,128,128,127,129,128,127,0
8382,129,128,127,127,127,127,128,128,0
8385,126,126,127,127,128,124,129,127,0
8388,130,126,126,127,128,128,129,128,0
8391,127,127,128,128,128,129,128,129,0
8395,125,129,128,128,124,126,126,126,0
8398,129,128,127,130,128,128,124,127,0
8401,129,128,128,130,125,126,128,128,0
8404,128,129,129,126,127,127,128,128,0
8407,126,128,128,125,129,127,128,128,0
8410,126,127,128,126,127,127,128,128,0
8413,127,128,127,127,127,127,127,128,0
8416,127,129,127,128,128,128,127,128,0
8420,128,127,127,127,127,127,128,127,0
8426,129,127,127,130,129,128,123,126,0
8431,130,127,127,130,126,126,128,128,0
8434,127,128,128,126,129,128,128,128,0
8437,127,128,127,125,126,127,129,128,0
8440,127,126,128,124,128,126,129,128,0
8443,126,127,128,127,129,128,128,128,0
8446,127,128,128,127,128,128,129,128,0
8450,127,128,128,127,128,125,128,127,0
8453,128,126,128,127,126,125,128,128,0
8456,127,128,125,127,128,128,129,128,0
8460,127,127,127,128,128,129,129,127,0
8464,127,127,129,127,128,127,129,129,0
8466,127,126,129,129,129,128,124,126,0
8470,130,129,127,128,129,129,126,127,0
8473,128,128,128,127,128,129,130,128,0
8476,128,128,129,127,128,127,129,127,0
8479,126,128,128,127,128,127,129,128,0
8482,128,128,128,126,128,127,128,128,0
8486,127,128,127,127,127,126,128,128,0
8491,127,128,127,126,127,127,128,128,0
8494,128,127,129,126,127,127,123,126,0
8497,131,127,126,130,129,127,128,127,0
8500,127,127,128,127,128,128,128,128,0
8503,128,127,127,127,129,126,129,128,0
8506,126,127,129,125,128,128,130,127,0
8509,127,127,128,128,128,128,129,128,0
8512,127,128,128,127,127,128,127,128,0
8515,128,129,129,128,128,127,128,128,0
8519,128,127,127,127,123,126,123,127,0
8523,130,128,128,130,128,128,122,126,0
8526,128,128,129,127,128,128,128,127,0
8530,128,127,127,127,126,127,129,127,0
8534,128,127,128,125,127,127,129,128,0
8539,124,128,126,127,128,128,129,128,0
8545,127,128,127,127,127,128,127,129,0
8549,127,128,128,128,127,128,127,128,0
8552,127,128,127,128,129,127,128,127,0
8555,127,127,128,127,126,127,128,128,0
8560,128,128,127,128,127,128,128,129,0
8563,128,128,127,127,127,126,129,128,0
8566,127,126,128,126,125,125,128,128,0
8569,128,125,125,129,129,128,124,126,0
8586,131,129,125,130,128,129,123,126,0
8591,127,127,128,124,129,128,129,128,0
8594,127,128,128,124,128,127,128,127,0
8598,127,128,128,125,123,128,129,128,0
8602,127,128,127,126,129,128,128,128,0
8605,127,129,126,127,128,128,128,128,0
8609,128,127,127,127,127,125,126,125,0
8612,129,128,127,133,126,128,124,125,0
8615,131,126,126,126,124,128,129,128,0
8619,126,130,129,126,131,129,129,128,0
8622,126,129,125,124,128,127,130,128,0
8625,127,127,128,126,128,128,128,127,0
8629,128,128,128,128,127,128,127,128,0
8632,128,128,128,128,127,127,127,128,0
8635,128,128,128,128,127,126,128,128,0
8638,130,126,127,131,125,127,125,127,0
8642,130,126,127,131,126,127,127,129,0
8645,126,128,127,128,128,128,127,128,0
8648,128,128,128,126,128,128,128,127,0
8653,127,127,128,125,128,127,128,128,0
8657,127,127,126,126,128,128,128,128,0
8662,127,129,128,128,129,129,127,128,0
8669,127,128,127,128,127,127,126,128,0
8675,126,127,127,128,125,126,125,126,0
8678,130,127,129,133,127,130,124,125,0
8682,129,126,130,128,128,129,129,127,0
8685,128,128,125,124,129,129,129,128,0
8689,125,129,126,125,125,128,129,127,0
8692,128,128,128,124,128,128,129,128,0
8695,127,128,127,126,128,128,128,128,0
8698,129,128,127,125,129,128,128,128,0
8702,126,128,127,127,125,127,128,128,0
8705,127,127,128,127,128,127,128,128,0
8709,127,128,127,127,128,129,128,129,0
8712,126,128,127,126,128,125,129,128,0
8715,128,127,125,130,128,128,123,126,0
8719,129,127,126,130,127,129,124,127,0
8722,129,127,132,126,128,130,129,128,0
8725,128,127,128,125,126,129,129,128,0
8729,127,128,127,125,127,126,129,128,0
8734,127,127,127,129,123,125,125,126,0
8738,129,126,129,128,127,129,129,128,0
8742,128,127,129,129,128,129,129,128,0
8745,128,128,128,126,128,123,127,128,0
8749,127,128,128,128,126,126,128,128,0
8753,130,127,129,129,129,128,128,129,0
8757,128,128,131,133,127,127,128,129,0
8759,126,128,128,125,127,128,123,126,0
8763,130,127,127,133,129,129,124,127,0
8768,126,127,128,127,129,128,129,128,0
8772,127,128,129,128,129,128,129,128,0
8778,127,129,126,126,129,126,128,128,0
8782,127,128,127,125,127,126,129,128,0
8785,127,129,127,128,128,127,128,127,0
8789,127,128,128,128,129,128,128,127,0
8792,127,127,126,127,128,125,128,128,0
8795,127,125,127,130,128,129,123,127,0
8799,130,126,131,134,124,127,129,127,0
8802,127,126,136,124,127,126,128,127,0
8805,127,129,120,123,130,129,128,129,0
8809,126,128,128,125,129,128,128,128,0
8813,127,129,127,129,128,128,127,129,0
8817,128,127,130,129,128,128,127,127,0
8820,128,126,128,128,126,127,128,128,0
8822,125,127,127,130,128,128,123,125,0
8825,129,128,128,130,125,129,129,127,0
8830,127,128,128,129,129,128,129,128,0
8833,126,127,128,127,129,128,129,128,0
8837,127,124,129,130,126,127,126,127,0
8839,127,126,127,124,129,129,128,128,0
8842,127,128,129,125,128,128,129,127,0
8845,127,128,126,125,129,127,129,128,0
8850,127,126,132,130,125,126,129,127,0
8852,127,128,125,122,130,128,127,128,0
8855,127,129,125,126,128,128,127,127,0
8858,127,128,126,126,127,127,128,128,0
8861,127,124,127,130,129,128,123,126,0
8864,130,128,125,129,126,126,128,127,0
8866,128,128,127,128,126,128,128,128,0
8870,126,128,127,127,128,128,129,128,0
8873,128,127,127,126,126,127,129,127,0
8878,127,127,128,127,128,127,128,127,0
8881,127,128,128,128,128,127,127,127,0
8886,127,128,126,127,127,127,129,128,0
8891,126,127,128,126,125,125,129,125,0
8894,130,127,126,131,128,128,124,125,0
8898,126,128,127,128,129,128,127,128,0
8901,127,128,129,128,128,128,128,127,0
8905,127,127,126,126,128,128,128,129,0
8909,126,127,129,126,127,128,126,128,0
8912,127,128,128,128,129,128,127,127,0
8915,127,128,129,127,126,127,126,128,0
8920,128,127,128,126,126,128,122,125,0
8924,129,127,128,129,127,129,123,126,0
8927,128,127,129,126,128,128,129,128,0
8930,127,128,129,124,128,127,130,128,0
8933,127,128,127,126,128,126,129,128,0
8936,127,127,128,122,129,127,128,128,0
8939,128,128,130,128,128,129,128,128,0
8942,127,128,127,126,128,128,127,128,0
8945,126,128,127,131,129,128,124,126,0
8949,129,126,127,130,128,127,126,128,0
8952,127,128,126,126,128,129,129,129,0
8955,127,128,126,126,127,128,129,128,0
8958,127,128,128,126,128,127,129,127,0
8961,129,128,126,125,128,127,128,128,0
8964,127,128,126,125,129,129,127,128,0
8969,128,128,128,126,128,129,126,128,0
8972,127,127,127,128,127,125,126,126,0
8975,129,126,127,131,130,129,124,125,0
8979,129,127,130,128,129,128,129,128,0
8982,128,128,128,127,129,128,129,128,0
8987,127,127,127,128,130,126,128,127,0
8991,126,127,128,127,128,128,130,128,0
8995,127,127,127,127,128,128,128,129,0
9001,127,128,128,127,128,128,129,128,0
9006,126,128,127,128,128,123,126,126,0
9009,130,126,128,131,128,128,124,126,0
9012,129,127,128,126,130,129,129,128,0
9015,128,128,127,126,129,128,129,128,0
9020,127,128,129,126,130,127,130,127,0
9024,127,128,129,126,130,126,130,128,0
9027,127,128,126,128,130,128,128,128,0
9031,128,128,127,127,128,128,128,128,0
9034,128,128,127,128,126,125,128,128,0
9038,127,126,127,131,129,128,123,126,0
9041,130,127,127,130,126,125,129,127,0
9044,128,129,127,126,129,128,128,127,0
9048,128,128,127,126,129,127,129,128,0
9052,126,127,126,125,128,128,128,127,0
9055,126,128,127,126,129,130,129,127,0
9059,127,128,127,128,130,130,128,127,0
9062,128,127,128,129,127,128,128,129,0
9065,125,127,131,132,128,129,123,126,0
9069,129,127,127,133,126,125,128,128,0
9073,127,128,127,128,128,129,129,128,0
9077,127,129,127,126,129,128,128,128,0
9080,127,128,128,127,128,127,129,128,0
9084,126,129,127,128,127,127,127,129,0
9087,127,128,127,128,126,127,127,128,0
9090,127,127,129,128,124,126,127,128,0
9094,128,126,127,131,127,128,123,125,0
9098,129,128,126,130,124,125,127,128,0
9101,127,128,130,126,128,129,128,128,0
9105,126,128,128,126,127,128,130,129,0
9110,127,126,131,128,125,127,129,128,0
9113,130,128,130,126,127,126,128,128,0
9116,127,128,126,126,130,130,128,129,0
9119,125,130,126,126,128,128,128,129,0
9123,125,127,126,129,126,128,123,126,0
9126,130,127,127,131,128,128,124,127,0
9130,130,128,131,127,128,129,129,128,0
9133,127,128,128,126,129,129,129,128,0
9136,128,127,130,126,129,127,129,128,0
9140,127,128,127,126,129,127,128,128,0
9145,127,128,128,128,128,129,129,127,0
9148,127,128,128,128,130,128,129,129,0
9152,125,125,127,131,129,128,124,126,0
9155,129,126,127,131,129,127,124,127,0
9159,127,127,129,129,131,130,130,129,0
9162,127,127,130,128,128,127,131,128,0
9166,130,129,128,128,130,127,130,128,0
9174,124,129,125,126,127,127,130,128,0
9177,126,128,127,127,127,127,128,128,0
9185,127,128,127,127,128,128,129,128,0
9188,127,127,127,127,126,125,128,128,0
9192,126,128,129,128,127,128,129,128,0
9196,127,128,128,128,128,128,128,127,0
9199,127,128,128,129,128,128,127,127,0
9203,127,128,128,127,127,127,123,125,0
9206,131,127,126,129,128,128,122,126,0
9209,130,126,126,130,125,127,128,128,0
9213,128,128,130,126,127,127,128,128,0
9216,127,128,127,125,127,125,128,127,0
9221,127,126,128,128,126,127,128,127,0
9225,127,128,127,126,127,128,127,128,0
9229,127,128,127,129,129,128,128,128,0
9233,127,127,126,126,127,125,128,127,0
9235,130,127,128,125,128,126,128,127,0
9239,128,127,129,127,125,128,127,128,0
9242,127,128,126,128,128,128,127,128,0
9244,126,127,125,127,124,126,125,127,0
9247,128,126,126,130,129,129,123,126,0
9250,130,127,127,129,123,131,128,128,0
9253,128,129,128,125,127,128,128,128,0
9255,128,127,127,126,125,126,129,128,0
9258,127,126,127,126,126,128,131,129,0
9261,126,128,125,128,128,129,129,128,0
9264,127,128,128,127,129,129,129,128,0
9267,126,128,128,126,129,126,128,128,0
9270,126,128,128,126,126,126,129,128,0
9274,128,126,128,131,127,126,125,126,0
9277,129,124,131,127,128,128,129,128,0
9280,128,129,130,128,122,128,129,128,0
9284,127,126,128,126,127,128,128,128,0
9287,126,127,127,127,127,128,128,127,0
9290,127,127,129,130,128,128,128,128,0
9293,127,128,128,127,123,128,128,127,0
9296,127,127,127,130,129,129,123,126,0
9299,129,127,128,130,126,126,125,128,0
9303,128,128,127,127,128,129,128,128,0
9306,127,129,128,127,129,129,128,128,0
9309,127,129,129,127,127,127,129,128,0
9312,127,127,128,127,128,127,129,128,0
9316,127,128,128,129,129,127,127,128,0
9321,128,128,128,127,129,127,128,128,0
9328,125,128,128,127,127,126,127,128,0
9332,127,127,129,130,126,126,126,128,0
9335,127,128,130,131,127,127,127,128,0
9340,128,127,127,130,128,127,127,128,0
9343,128,125,128,131,128,128,122,125,0
9347,130,127,127,130,128,129,123,126,0
9351,126,128,129,126,127,128,129,128,0
9355,127,128,128,124,127,128,129,128,0
9360,130,128,128,125,128,127,130,128,0
9363,127,127,127,126,126,128,129,128,0
9367,127,127,130,127,127,128,128,127,0
9371,129,127,127,127,128,127,128,127,0
9375,125,127,127,128,125,124,128,127,0
9379,129,128,129,128,127,126,122,124,0
9382,132,123,125,130,127,127,129,127,0
9386,129,126,126,127,129,128,129,128,0
9390,127,127,127,126,129,127,130,128,0
9393,126,127,125,125,126,128,129,128,0
9397,128,127,127,127,128,129,128,128,0
9400,127,129,126,129,127,128,127,128,0
9404,128,127,128,128,126,126,127,128,0
9407,129,124,127,130,129,129,123,125,0
9410,129,127,127,131,126,127,129,127,0
9414,128,128,127,126,129,129,129,128,0
9417,127,128,127,126,126,127,128,128,0
9420,127,128,130,127,129,128,128,128,0
9423,128,127,128,126,129,129,128,128,0
9426,126,129,127,126,129,129,128,128,0
9429,127,128,127,127,128,126,127,127,0
9434,129,127,127,132,128,129,124,126,0
9440,130,127,127,130,124,129,128,128,0
9444,128,128,127,126,126,128,128,128,0
9450,127,128,128,126,127,126,128,128,0
9454,129,128,129,127,128,127,129,128,0
9457,127,128,127,127,128,128,128,128,0
9460,127,128,128,128,127,128,127,128,0
9464,127,128,128,128,128,127,128,127,0
9467,127,127,127,128,121,123,123,126,0
9470,129,126,128,130,125,127,128,128,0
9472,127,129,127,127,128,127,129,127,0
9476,128,127,128,126,127,127,130,128,0
9480,127,126,129,127,126,125,129,128,0
9483,126,129,126,128,128,129,127,128,0
9487,127,128,127,128,128,129,128,128,0
9492,128,128,128,127,125,128,127,126,0
9494,127,128,125,130,129,129,124,126,0
9497,128,127,127,129,124,129,129,127,0
9500,127,129,130,127,129,128,129,127,0
9503,128,129,125,126,128,127,129,128,0
9506,130,128,128,126,128,128,129,129,0
9509,126,128,126,127,128,129,128,128,0
9513,128,127,128,129,127,129,128,128,0
9516,127,127,127,127,128,127,129,128,0
9519,128,127,127,129,126,128,124,126,0
9522,131,126,127,131,128,127,128,129,0
9524,128,129,130,127,128,127,130,127,0
9527,130,125,129,126,129,126,129,128,0
9530,126,128,126,125,129,128,128,129,0
9533,126,128,126,125,127,128,127,128,0
9537,127,128,127,129,128,127,127,128,0
9540,127,127,128,127,127,128,127,128,0
9544,127,127,129,131,129,128,122,126,0
9549,132,126,127,130,128,127,124,128,0
9553,130,129,127,127,128,129,127,128,0
9555,129,128,129,128,127,129,130,129,0
9558,127,127,127,126,126,128,128,128,0
9561,128,128,127,126,130,131,127,128,0
9564,128,128,127,128,128,128,128,128,0
9566,128,128,127,127,129,128,128,128,0
9570,128,128,128,129,127,129,122,126,0
9574,130,127,126,131,127,128,125,127,0
9577,127,129,127,129,129,128,130,128,0
9580,129,128,127,125,126,128,128,128,0
9583,128,128,129,125,129,126,130,128,0
9586,127,128,129,128,128,127,128,128,0
9591,127,128,127,127,128,127,128,128,0
9594,127,128,127,129,128,126,128,128,0
9597,128,127,127,131,127,125,125,126,0
9600,128,127,126,130,127,127,125,127,0
9603,128,127,128,129,121,128,131,128,0
9606,127,128,129,128,128,128,130,128,0
9610,126,128,130,125,128,127,129,128,0
9614,126,127,130,126,130,130,129,128,0
9617,126,128,129,127,129,129,127,128,0
9620,126,128,128,127,128,129,128,128,0
9623,127,127,128,128,124,126,127,128,0
9627,130,127,127,130,128,128,123,126,0
9630,128,128,127,131,126,126,129,127,0
9633,127,128,127,125,127,128,127,127,0
9636,128,128,127,126,125,126,128,127,0
9640,128,126,129,126,129,128,128,127,0
9644,126,128,128,127,127,128,128,128,0
9651,126,128,127,128,128,128,127,128,0
9654,126,128,128,126,127,124,128,128,0
9657,128,127,128,126,125,127,128,127,0
9660,125,127,126,128,128,127,125,128,0
9665,126,128,128,128,126,127,127,127,0
9668,127,126,127,126,130,128,122,125,0
9671,130,127,127,130,129,129,123,126,0
9675,130,127,127,130,121,129,128,126,0
9679,130,129,127,128,128,130,129,127,0
9683,129,128,129,128,130,129,129,127,0
9687,127,125,129,125,126,128,128,128,0
9690,127,126,129,129,127,129,128,128,0
9693,127,128,128,129,127,129,128,128,0
9697,126,127,128,127,127,128,129,128,0
9701,126,124,126,130,125,126,125,127,0
9705,128,127,127,129,125,128,126,128,0
9710,127,128,129,126,127,128,128,128,0
9713,128,126,128,128,127,127,129,128,0
9715,126,127,129,126,130,126,129,128,0
9720,127,127,127,127,125,128,127,127,0
9724,127,128,127,128,127,128,126,127,0
9728,126,128,127,128,128,126,127,127,0
9731,128,127,127,127,124,126,124,127,0
9735,129,126,127,131,127,127,124,126,0
9738,128,128,127,128,129,128,128,128,0
9742,127,128,126,127,128,127,129,127,0
9745,127,128,126,126,126,127,128,128,0
9749,128,128,127,127,128,128,127,127,0
9752,128,128,126,128,126,129,128,128,0
9755,127,128,127,128,127,127,129,128,0
9760,126,127,127,130,128,127,123,126,0
9767,129,128,127,131,128,127,126,126,0
9774,128,128,127,126,128,128,127,127,0
9777,128,128,128,127,128,127,129,128,0
9781,126,128,128,125,128,126,129,128,0
9784,127,128,129,126,128,123,129,128,0
9788,127,128,128,127,128,127,129,128,0
9791,126,128,127,128,129,127,130,128,0
9795,126,126,128,127,126,126,129,128,0
9798,126,127,128,127,127,127,128,128,0
9801,126,128,127,128,128,129,127,128,0
9805,129,128,128,127,125,129,127,127,0
9808,127,127,128,131,129,130,123,126,0
9813,129,127,127,131,129,129,123,126,0
9816,130,127,127,128,128,129,129,128,0
9820,127,127,128,129,130,128,129,128,0
9823,127,128,127,128,131,127,129,128,0
9828,126,127,128,127,129,128,129,128,0
9831,127,128,127,128,127,128,127,127,0
9834,127,128,127,129,127,128,129,128,0
9838,127,128,130,127,127,126,129,128,0
9841,128,127,126,131,128,128,123,126,0
9844,129,126,126,129,126,128,129,128,0
9848,128,128,128,129,128,129,128,127,0
9851,126,128,130,128,127,127,129,128,0
9854,129,126,130,126,128,128,129,127,0
9857,127,128,128,127,128,128,128,128,0
9861,127,128,127,128,128,127,128,128,0
9864,127,127,127,128,127,127,128,128,0
9868,126,126,128,126,127,126,129,128,0
9873,127,129,126,128,128,128,127,128,0
9876,128,128,127,127,128,129,127,128,0
9882,128,128,127,127,126,127,125,127,0
9887,129,127,127,131,129,129,124,126,0
9893,130,127,126,131,125,127,130,128,0
9897,127,128,126,128,128,128,129,127,0
9900,128,128,130,125,126,127,130,128,0
9904,127,128,127,126,128,127,129,128,0
9907,126,128,127,125,128,128,129,128,0
9911,127,128,126,126,125,128,128,127,0
9914,127,128,128,127,128,126,127,127,0
9917,126,128,128,127,128,127,127,128,0
9921,127,127,127,127,128,126,127,128,0
9924,128,128,127,127,129,129,127,127,0
9927,125,128,128,126,123,127,121,126,0
9930,129,127,127,130,129,129,123,127,0
9934,130,127,127,130,126,124,129,128,0
9936,128,129,126,127,128,127,129,128,0
9939,126,128,127,126,129,127,129,128,0
9942,127,128,129,125,128,127,129,128,0
9945,126,128,127,125,127,128,130,128,0
9949,126,127,126,127,126,129,128,128,0
9952,126,128,127,127,127,126,128,128,0
9956,125,127,126,129,129,127,124,126,0
9959,130,126,127,129,127,128,126,126,0
9962,126,127,128,128,128,128,129,128,0
9965,127,127,128,128,128,127,130,129,0
9968,127,127,129,126,127,127,129,129,0
9970,125,128,129,127,128,128,128,128,0
9973,128,129,127,127,128,128,127,128,0
9976,127,128,125,129,127,127,128,128,0
9979,127,128,127,127,127,127,129,128,0
9984,125,127,126,128,127,128,129,128,0
9990,128,128,126,130,129,130,128,128,0
9994,127,128,127,129,128,130,128,128,0
9998,128,126,127,131,130,130,123,125,0
10001,131,127,127,130,129,129,123,127,0
10004,128,128,127,125,128,128,128,127,0
10007,127,129,127,127,129,130,130,128,0
10010,128,128,126,124,127,126,130,129,0
10013,127,128,127,125,128,127,129,128,0
10016,127,129,127,129,128,127,128,128,0
10020,128,129,128,128,126,127,127,128,0
10023,128,126,127,132,129,128,123,126,0
10028,130,126,127,131,128,129,123,127,0
10031,128,127,129,128,129,131,130,128,0
10034,126,129,128,127,129,130,130,127,0
10037,127,126,131,125,127,127,130,129,0
10040,128,127,129,122,125,129,130,129,0
10043,124,129,129,122,129,130,130,128,0
10045,125,129,130,123,130,129,129,128,0
10048,127,128,128,128,130,128,123,127,0
10052,130,125,127,128,130,129,124,127,0
10056,129,128,129,125,124,127,127,129,0
10062,127,129,127,125,129,128,129,128,0
10065,127,129,128,126,128,124,130,128,0
10068,127,128,128,126,123,128,127,128,0
10070,128,128,127,127,130,129,125,127,0
10074,128,128,127,126,130,128,130,129,0
10077,127,130,128,126,125,127,131,129,0
10080,127,128,125,128,133,130,126,127,0
10084,130,129,125,129,132,131,127,127,0
10090,127,128,125,127,127,131,132,130,0
10095,127,130,127,124,130,127,132,128,0
10101,129,129,125,129,136,134,129,128,0
10108,128,130,123,130,136,135,127,128,0
10112,129,131,125,130,136,135,128,129,0
10116,128,132,124,128,136,134,129,129,0
10119,131,132,124,128,140,139,128,128,0
10123,130,132,123,128,136,135,129,131,0
10126,127,132,124,129,134,135,129,129,0
10129,128,129,124,129,132,132,129,129,0
10133,126,129,125,127,136,133,129,128,0
10137,129,130,127,127,132,130,133,127,0
10140,126,129,128,125,129,127,131,128,0
10143,125,130,128,126,130,129,130,127,0
10145,126,128,128,126,129,129,131,127,0
10151,126,129,128,127,128,129,130,127,0
10154,127,128,126,130,128,130,128,127,0
10158,126,128,126,131,129,128,129,127,0
10161,126,129,126,131,128,128,129,127,0
10164,128,129,127,130,127,127,129,127,0
10168,127,127,126,131,127,129,130,126,0
10171,127,127,127,131,127,128,128,127,0
10174,127,127,127,131,127,126,128,127,0
10178,126,125,128,131,128,128,128,127,0
10181,125,126,127,131,130,126,131,127,0
10184,127,125,127,133,129,128,130,127,0
10188,126,125,129,129,128,126,127,127,0
10190,125,125,128,130,124,125,129,127,0
10194,124,126,128,129,125,126,129,127,0
10197,124,127,129,130,124,127,128,127,0
10200,124,126,128,130,127,125,128,127,0
10204,124,125,128,129,127,127,126,127,0
10210,126,125,127,130,122,126,125,126,0
10213,127,126,129,129,123,124,125,126,0
10217,127,125,131,128,126,125,128,126,0
10220,127,124,131,128,121,124,128,126,0
10223,126,125,130,129,124,124,125,126,0
10225,126,126,131,129,123,124,125,126,0
10230,127,125,129,128,123,121,126,126,0
10233,127,124,131,130,120,123,127,126,0
10236,130,125,132,128,119,121,127,126,0
10240,130,126,133,127,119,120,127,126,0
10243,130,126,133,127,116,118,125,126,0
10247,131,126,131,126,120,118,125,126,0
10250,130,125,132,127,118,120,125,126,0
10253,129,125,130,126,117,120,126,125,0
10257,129,124,130,125,120,118,126,127,0
10260,129,124,129,125,120,120,124,127,0
10264,129,126,128,126,119,121,123,127,0
10267,129,127,128,126,120,122,124,128,0
10273,128,126,128,126,120,122,124,127,0
10277,129,126,128,126,122,121,125,127,0
10281,128,126,127,126,122,120,127,127,0
10284,128,125,128,125,120,123,126,127,0
10287,128,125,128,126,123,122,127,127,0
10291,128,125,129,125,123,121,126,127,0
10294,127,124,129,127,121,122,127,127,0
10297,129,124,130,123,122,124,127,126,0
10301,128,124,130,121,120,123,128,127,0
10304,127,125,129,117,121,123,128,126,0
10307,128,125,130,118,122,124,128,126,0
10311,128,127,131,122,124,126,127,128,0
10317,127,125,129,121,124,124,127,126,0
10322,127,125,130,122,122,124,127,126,0
10326,127,126,129,122,125,126,129,127,0
10330,128,127,129,124,126,129,130,127,0
10333,128,127,129,125,126,125,128,127,0
10336,131,125,126,129,128,128,125,125,0
10339,130,126,127,130,127,130,125,127,0
10343,127,128,127,127,127,127,129,128,0
10346,127,128,130,127,127,127,128,128,0
10350,126,128,128,131,129,128,125,126,0
10353,130,126,129,130,129,129,125,127,0
10355,127,129,127,127,130,127,130,128,0
10361,127,128,128,126,130,129,129,129,0
10363,126,128,130,125,125,127,125,126,0
10366,130,126,131,127,129,129,125,125,0
10371,127,129,131,125,128,130,131,129,0
10373,126,129,128,126,130,128,130,128,0
10382,126,129,125,126,129,128,128,129,0
10378,127,129,128,125,129,127,131,128,0
10385,128,128,124,127,128,128,129,128,0
10389,127,129,124,128,128,127,127,126,0
10398,130,127,122,130,130,127,127,126,0
10403,132,128,122,131,129,129,126,125,0
10407,130,128,122,132,127,127,133,128,0
10410,126,129,121,128,129,128,130,128,0
10414,127,128,120,128,128,126,131,129,0
10417,126,128,120,127,128,127,130,128,0
10420,128,129,120,128,129,128,132,129,0
10423,127,129,122,130,129,128,129,128,0
10426,129,127,124,131,131,129,124,125,0
10430,131,127,122,130,130,128,122,126,0
10434,131,128,125,128,131,130,127,129,0
10440,127,129,126,129,129,130,128,130,0
10446,126,130,128,129,128,129,128,130,0
10451,127,130,128,128,129,128,126,129,0
10454,128,130,129,128,130,129,126,129,0
10458,126,129,130,129,128,129,127,129,0
10461,126,130,130,128,130,128,126,129,0
10465,130,127,128,131,130,129,120,125,0
10468,130,127,129,128,126,130,127,128,0
10471,126,130,129,128,131,131,127,129,0
10475,126,130,128,127,129,130,127,129,0
10478,125,130,128,128,132,130,126,129,0
10482,126,129,127,129,132,130,126,129,0
10485,128,129,128,129,129,129,128,128,0
10489,127,129,127,128,132,131,123,126,0
10492,130,128,126,131,132,130,124,126,0
10495,129,128,126,131,131,130,126,130,0
10498,126,129,125,128,131,131,130,128,0
10501,125,129,125,126,130,129,130,128,0
10504,126,129,124,126,128,129,130,129,0
10507,125,128,124,127,130,130,128,129,0
10510,126,129,124,128,130,129,128,129,0
10513,126,128,125,128,128,128,128,129,0
10515,126,127,125,127,124,130,123,127,0
10519,130,126,126,130,130,130,123,126,0
10522,126,129,127,126,130,129,127,129,0
10526,126,128,125,125,129,128,128,128,0
10530,127,128,125,126,126,128,127,127,0
10534,128,127,127,131,129,129,125,126,0
10539,127,128,126,129,130,131,128,129,0
10543,126,128,126,126,129,128,128,129,0
10547,126,128,127,127,129,129,129,128,0
10552,127,127,130,131,127,131,124,128,0
10558,129,128,129,128,130,130,128,128,0
10563,127,129,129,126,130,129,128,128,0
10567,125,129,128,126,128,128,128,129,0
10570,128,128,130,126,128,129,128,128,0
10573,128,129,131,127,127,130,127,129,0
10577,128,129,130,127,127,128,126,127,0
10580,129,127,131,130,127,128,124,126,0
10583,131,127,130,130,126,127,127,129,0
10586,128,130,129,126,127,129,130,128,0
10589,127,129,129,126,126,129,129,128,0
10592,128,128,127,129,127,126,129,128,0
10595,126,126,128,127,129,128,128,128,0
10598,128,128,129,128,127,129,128,128,0
10601,127,129,128,128,128,127,129,128,0
10604,125,128,128,132,128,128,123,127,0
10607,130,127,127,132,128,127,124,128,0
10610,128,128,124,128,127,128,129,127,0
10613,127,128,124,128,128,127,129,129,0
10616,125,128,126,127,130,124,130,128,0
10620,127,128,124,125,129,128,129,128,0
10623,128,128,125,126,130,128,128,128,0
10626,127,128,126,126,130,127,128,127,0
10630,126,126,128,125,127,125,130,126,0
10635,129,127,126,130,130,127,124,125,0
10637,131,126,127,128,132,128,130,127,0
10640,127,128,129,125,128,128,129,128,0
10643,125,128,128,127,130,127,130,128,0
10646,127,126,131,125,127,127,129,128,0
10649,127,128,131,126,129,128,128,128,0
10652,126,128,132,127,129,128,128,129,0
10657,126,127,132,126,127,123,125,126,0
10660,131,126,132,131,129,128,123,126,0
10664,128,127,131,128,131,128,130,126,0
10667,128,129,131,129,129,129,129,128,0
10670,128,128,130,128,130,128,130,128,0
10674,127,128,129,126,126,128,127,128,0
10678,129,127,129,127,126,129,127,127,0
10680,129,128,128,128,127,128,127,128,0
10683,128,129,129,127,125,127,125,127,0
10687,131,127,128,132,127,128,123,125,0
10689,130,127,130,127,128,128,128,127,0
10692,127,128,128,127,128,129,128,128,0
10697,126,127,130,125,127,127,129,128,0
10700,127,127,128,128,129,127,128,128,0
10703,128,128,127,126,128,128,128,128,0
10706,128,128,127,127,127,128,128,129,0
10710,126,127,129,127,124,127,128,129,0
10713,128,127,129,127,127,127,127,128,0
10716,127,127,128,128,127,128,127,130,0
10721,126,129,128,128,126,129,127,129,0
10724,127,128,126,128,126,127,126,125,0
10728,127,125,126,131,127,128,122,125,0
10731,129,127,125,130,126,126,127,127,0
10734,128,128,127,127,129,128,129,127,0
10737,127,127,127,125,128,128,130,127,0
10742,126,127,128,125,128,127,130,131,0
10745,125,128,127,127,127,129,129,129,0
10748,128,128,127,128,128,128,127,128,0
10751,125,129,127,127,127,127,128,125,0
10754,132,126,128,129,124,124,127,125,0
10759,129,126,127,132,126,129,123,126,0
10763,125,127,128,128,128,128,128,128,0
10768,126,127,128,128,127,128,128,127,0
10774,126,127,128,125,127,127,126,129,0
10778,124,128,129,128,129,129,127,128,0
10782,129,127,129,128,125,128,127,128,0
10785,127,128,128,128,128,127,131,139,0
10788,127,129,126,130,128,130,123,119,0
10791,134,125,128,131,126,125,127,119,0
10795,128,126,127,128,129,127,127,125,0
10799,128,127,128,127,127,127,128,127,0
10802,128,127,126,125,128,127,128,128,0
10805,127,128,127,126,126,127,129,127,0
10808,128,128,127,128,127,128,128,129,0
10811,127,129,125,127,126,127,127,128,0
10814,128,128,125,126,125,126,127,127,0
10817,129,126,127,131,129,128,122,125,0
10821,130,128,126,127,129,128,128,128,0
10824,126,129,126,125,129,128,129,128,0
10828,126,128,126,127,129,127,129,128,0
10831,125,128,127,128,129,128,129,128,0
10834,128,128,127,128,130,128,128,128,0
10837,127,129,126,127,128,128,128,128,0
10840,126,128,127,126,129,126,123,125,0
10843,131,127,127,130,127,128,124,126,0
10846,128,125,127,128,132,129,129,128,0
10850,127,129,129,128,128,129,128,128,0
10853,127,128,127,125,127,128,128,128,0
10856,124,129,130,128,127,127,129,128,0
10860,128,128,128,126,127,128,129,128,0
10863,127,128,127,126,128,128,129,128,0
10866,126,127,126,129,123,126,122,126,0
10875,128,128,126,127,128,128,130,128,0
10870,130,127,128,131,127,128,123,126,0
10881,127,129,126,128,127,128,129,129,0
10884,128,128,127,127,127,129,131,129,0
10887,125,128,127,127,128,128,131,128,0
10890,128,128,127,128,127,128,128,128,0
10893,128,128,126,126,127,128,129,128,0
10896,125,128,125,127,126,126,129,127,0
10900,128,128,127,131,127,128,123,126,0
10903,130,127,126,128,129,128,129,128,0
10906,127,129,127,126,128,128,128,128,0
10910,127,128,127,127,125,126,128,128,0
10913,126,127,127,126,127,127,128,127,0
10916,127,128,127,126,127,127,128,127,0
10919,128,128,127,128,128,127,127,127,0
10922,128,128,128,127,123,125,126,126,0
10925,129,126,128,131,129,128,123,125,0
10928,131,127,128,128,127,129,128,128,0
10930,127,128,128,126,128,128,128,128,0
10933,128,128,127,127,129,127,130,128,0
10936,127,127,127,128,123,126,125,127,0
10940,128,127,127,130,126,127,127,127,0
10944,130,128,129,126,129,129,129,128,0
10947,127,128,126,125,129,128,130,128,0
10950,127,126,127,128,127,126,129,128,0
10953,128,128,127,126,128,129,128,128,0
10956,128,128,126,129,129,128,128,128,0
10960,127,128,127,128,128,128,128,127,0
10964,130,125,127,130,128,128,123,126,0
10968,131,127,127,130,125,126,129,128,0
10970,127,129,127,128,128,127,129,127,0
10973,127,129,128,125,128,127,129,128,0
10977,125,128,127,126,129,127,128,128,0
10982,124,128,127,127,128,128,128,127,0
10985,128,128,128,129,129,129,127,128,0
10988,127,128,128,128,129,128,128,128,0
10991,127,127,128,126,127,127,128,127,0
10995,128,126,129,130,127,126,124,126,0
11000,129,127,128,130,127,125,128,127,0
11003,127,128,129,128,130,128,129,128,0
11008,125,127,129,127,128,127,129,127,0
11013,126,127,128,129,127,128,124,126,0
11017,128,128,127,128,122,130,130,128,0
11020,127,129,127,127,129,129,128,128,0
11024,128,127,128,129,129,127,128,127,0
11027,126,127,128,129,130,129,128,128,0
11030,128,128,128,129,129,129,128,128,0
11033,129,128,128,126,128,128,128,128,0
11036,127,127,128,124,125,126,128,128,0
11039,128,127,128,124,125,127,128,128,0
11042,129,128,127,128,126,127,128,128,0
11044,128,128,128,128,128,127,129,128,0
11048,128,126,128,127,124,126,122,125,0
11051,131,126,128,131,127,126,123,126,0
11054,130,127,126,128,130,132,130,128,0
11057,127,129,127,128,128,128,129,128,0
11060,127,128,128,127,126,127,130,128,0
11063,128,127,130,125,126,125,130,128,0
11066,127,128,127,128,128,128,127,128,0
11070,127,128,127,127,128,127,129,127,0
11074,126,128,126,127,127,126,128,128,0
11077,127,128,127,126,128,128,124,126,0
11080,128,127,128,130,125,127,125,126,0
11083,126,127,127,128,129,129,127,128,0
11089,125,128,126,125,126,126,128,128,0
11093,127,126,127,130,127,125,124,126,0
11097,129,126,127,129,125,125,123,125,0
11100,129,127,126,129,126,125,123,127,0
11103,129,126,126,124,130,131,131,130,0
11107,126,129,128,127,130,129,130,129,0
11110,126,128,128,128,131,129,129,128,0
11114,127,128,127,125,128,128,130,128,0
11117,127,128,126,125,128,126,131,128,0
11120,127,127,129,125,126,129,130,128,0
11123,126,128,127,127,125,128,128,128,0
11126,127,128,128,128,126,128,127,128,0
11130,127,128,127,126,127,128,128,128,0
11133,127,126,128,127,122,126,128,128,0
11136,128,128,129,128,127,129,128,128,0
11140,128,128,128,129,128,128,127,128,0
11143,127,127,130,127,122,127,123,126,0
11146,130,126,129,131,128,128,123,126,0
11149,130,126,127,129,120,128,131,128,0
11152,127,129,131,128,127,128,128,128,0
11156,128,127,128,127,128,128,129,128,0
11158,124,129,131,125,126,127,128,128,0
11162,127,128,128,125,128,129,127,128,0
11165,128,129,128,128,128,129,128,127,0
11167,127,128,128,126,129,128,128,127,0
11175,127,127,128,128,127,125,129,127,0
11180,127,128,127,128,127,125,126,127,0
11184,129,128,126,128,127,128,127,128,0
11187,128,128,126,128,125,126,129,127,0
11192,127,126,126,132,128,128,123,126,0
11197,130,126,125,129,128,128,126,128,0
11202,126,128,126,126,129,128,128,127,0
11205,128,128,127,125,128,127,128,128,0
11207,127,128,126,125,128,126,128,128,0
11210,128,128,128,127,129,128,128,128,0
11214,127,127,128,127,127,128,129,128,0
11218,126,128,127,127,128,128,128,128,0
11221,125,127,128,125,128,126,122,126,0
11224,129,126,128,130,128,128,124,127,0
11228,127,126,130,126,127,128,128,128,0
11232,126,128,127,127,128,128,130,128,0
11234,127,127,127,125,128,127,130,128,0
11237,124,127,126,126,128,127,128,128,0
11240,127,128,127,127,127,127,127,128,0
11248,127,127,126,128,128,127,128,128,0
11251,127,128,128,129,126,127,122,126,0
11255,130,127,126,130,127,127,124,127,0
11259,127,128,128,127,127,128,129,128,0
11261,127,129,126,125,126,129,127,128,0
11264,126,128,126,127,126,127,128,128,0
11268,128,128,126,125,127,128,129,127,0
11271,127,128,125,126,126,128,129,128,0
11284,128,128,126,127,127,128,129,128,0
11289,127,128,126,128,126,128,123,127,0
11293,130,126,128,130,129,129,123,126,0
11297,128,128,127,126,129,128,128,128,0
11301,127,128,127,126,129,129,129,128,0
11305,128,127,127,128,129,127,129,128,0
11308,126,128,129,128,129,127,129,128,0
11312,127,128,128,129,130,128,128,128,0
11317,127,128,128,129,129,127,130,128,0
11323,128,127,128,128,128,126,129,128,0
11366,126,126,127,128,126,126,123,126,0
11380,131,126,128,130,126,125,129,128,0
11388,127,128,127,125,126,127,130,128,0
11392,127,127,128,125,128,127,129,128,0
11396,127,127,130,127,126,126,128,127,0
11399,125,128,128,126,129,130,128,128,0
11437,127,129,128,128,127,129,128,127,0
11446,127,128,128,126,123,127,128,127,0
11451,130,127,127,132,129,129,124,126,0
11456,129,127,128,129,125,128,129,128,0
11461,127,128,128,128,127,130,129,128,0
11501,128,128,127,128,128,127,128,128,0
11507,127,127,127,125,128,126,129,128,0
11511,128,127,127,128,127,128,127,128,0
11515,127,127,126,128,128,128,129,128,0
11518,127,127,126,128,128,127,129,128,0
11522,127,127,128,128,126,127,128,128,0
11525,127,127,127,128,128,127,129,128,0
11529,128,128,127,128,127,128,127,128,0
11532,127,128,127,127,121,124,128,128,0
11535,127,127,127,128,129,128,123,126,0
11539,130,127,128,132,128,129,123,125,0
11542,128,128,127,127,128,129,128,128,0
11545,127,129,127,126,129,128,128,127,0
11549,128,128,127,124,127,125,128,127,0
11554,128,128,128,125,128,129,129,127,0
11560,127,129,127,128,128,129,130,128,0
11563,128,128,127,126,128,127,128,127,0
11567,127,128,128,132,128,128,123,126,0
11570,130,126,128,130,129,127,127,128,0
11575,127,129,128,129,129,129,128,128,0
11579,128,128,128,125,129,128,128,128,0
11582,126,127,128,125,127,128,129,128,0
11586,127,128,130,126,128,128,128,127,0
11590,128,128,128,128,127,128,128,127,0
11593,128,128,128,127,127,128,128,127,0
11597,128,128,128,125,127,127,129,128,0
11601,128,128,130,129,128,128,124,126,0
11640,130,127,128,128,131,129,129,128,0
11648,127,128,127,127,129,128,129,128,0
11652,128,127,127,125,129,127,126,127,0
11657,124,127,128,126,127,127,127,128,0
11660,127,128,126,128,127,129,128,128,0
11710,127,129,127,129,129,128,128,127,0
11720,129,125,128,131,129,126,122,124,0
11725,129,126,128,127,127,123,121,124,0
11729,130,126,123,127,128,129,131,130,0
11732,127,128,125,129,129,134,130,129,0
11736,126,129,125,127,126,125,126,126,0
11739,127,128,127,126,123,125,123,126,0
11743,128,128,126,127,120,127,129,129,0
11746,129,129,128,129,131,132,130,128,0
11750,128,127,127,125,129,130,129,129,0
11753,127,127,128,127,128,128,128,128,0
11758,127,127,128,129,127,128,128,128,0
11763,127,128,129,128,127,128,129,128,0
11767,126,128,129,127,128,127,129,128,0
11770,128,126,129,126,128,127,129,127,0
11774,127,128,130,127,128,128,128,127,0
11777,128,127,130,128,129,128,128,128,0
11780,127,127,129,126,126,128,124,126,0
11783,129,126,129,130,128,127,123,126,0
11787,128,127,128,130,122,128,129,128,0
11790,126,129,129,128,128,127,128,128,0
11794,127,128,128,128,127,127,128,128,0
11797,126,128,128,128,127,126,128,128,0
11800,126,128,126,128,127,128,127,127,0
11804,127,128,126,128,132,128,127,127,0
11807,128,127,125,127,131,126,129,127,0
11810,126,127,124,130,131,128,122,126,0
11813,128,127,125,128,128,126,129,129,0
11816,128,128,124,127,129,129,129,128,0
11820,127,128,125,127,130,129,130,129,0
11823,127,127,123,127,129,127,129,128,0
11826,127,128,126,127,128,128,129,128,0
11829,128,128,126,126,127,128,128,127,0
11832,127,127,127,127,125,125,127,128,0
11838,126,127,128,127,126,126,124,127,0
11841,129,127,128,130,125,127,124,126,0
11844,127,128,130,127,128,128,128,127,0
11847,126,128,130,127,126,128,129,127,0
11849,128,127,130,129,125,127,126,127,0
11852,128,127,129,129,126,127,126,129,0
11855,126,128,129,125,129,129,128,129,0
11860,127,128,129,127,127,128,129,128,0
11865,126,128,131,128,126,127,128,127,0
11908,127,128,130,126,126,128,129,128,0
11920,128,128,130,129,127,128,128,128,0
11934,128,129,129,129,126,128,127,128,0
11942,127,128,128,131,127,128,123,126,0
11948,130,127,128,131,126,126,128,128,0
11974,128,129,128,128,127,129,129,128,0
11981,128,128,128,127,126,128,130,128,0
11986,127,128,127,127,127,127,129,128,0
11990,127,128,129,125,127,127,128,127,0
11995,127,128,126,128,127,127,128,127,0
11999,127,127,127,126,127,127,128,127,0
12002,127,127,126,125,126,126,128,128,0
12006,127,127,126,130,127,128,123,125,0
12009,129,127,127,127,128,129,129,128,0
12013,128,127,127,127,127,128,129,128,0
12016,128,128,127,126,126,125,128,128,0
12020,127,127,128,126,128,127,129,128,0
12023,127,128,127,127,127,126,128,128,0
12026,128,128,128,128,128,129,129,128,0
12030,126,126,127,127,127,127,128,127,0
12033,127,128,129,127,128,126,123,125,0
12037,130,127,127,131,126,127,127,127,0
12040,129,128,127,127,129,128,129,128,0
12043,128,127,127,126,126,127,127,127,0
12046,128,127,128,129,127,127,126,128,0
12049,129,127,127,129,124,130,128,129,0
12051,126,128,127,125,129,129,129,128,0
12054,127,128,128,127,129,128,129,128,0
12058,129,129,128,128,128,129,129,128,0
12064,127,128,128,126,128,129,128,128,0
12067,128,128,128,128,126,128,128,127,0
12070,127,128,127,127,123,125,128,128,0
12073,126,128,128,127,123,127,123,125,0
12076,130,127,128,132,126,126,128,127,0
12079,129,128,128,128,127,128,129,128,0
12082,126,128,128,128,128,127,127,128,0
12086,127,127,130,125,126,126,129,127,0
12090,127,127,128,125,128,128,129,127,0
12093,127,128,127,127,128,128,128,128,0
12109,128,127,127,128,126,127,128,127,0
12113,125,125,127,131,128,127,122,126,0
12118,130,126,126,133,127,125,130,129,0
12123,128,128,126,129,129,128,128,128,0
12126,127,127,126,129,128,128,129,128,0
12130,127,128,126,126,128,127,129,128,0
12133,126,128,125,128,127,128,127,128,0
12137,127,128,126,128,127,127,127,127,0
12142,127,128,127,128,128,127,129,128,0
12145,127,127,127,127,127,126,128,128,0
12149,127,125,127,130,127,127,123,127,0
12177,128,125,127,127,129,129,128,128,0
12183,126,129,127,127,127,125,127,128,0
12187,126,129,128,131,128,128,123,126,0
12192,130,126,128,130,127,126,127,128,0
12196,128,128,127,126,128,128,128,128,0
12248,127,128,126,127,128,128,130,128,0
12265,126,128,128,126,126,126,129,128,0
12273,127,127,129,125,128,127,129,128,0
12281,128,128,129,127,127,128,128,128,0
12287,127,128,128,128,127,128,128,129,0
12291,126,126,129,125,128,128,129,128,0
12295,125,127,129,128,128,129,128,128,0
12299,128,128,129,128,128,129,128,128,0
12303,127,127,127,127,127,127,128,128,0
12306,129,126,129,130,127,128,123,126,0
12310,130,126,129,129,128,128,124,127,0
12313,126,128,129,126,128,128,130,127,0
12316,128,129,127,127,128,128,130,128,0
12319,127,127,128,125,128,128,130,127,0
12323,127,127,128,127,128,128,127,128,0
12326,127,129,128,126,127,128,129,128,0
12333,128,126,128,126,128,126,124,125,0
12329,127,128,128,127,129,129,127,128,0
12336,130,126,128,132,129,126,125,127,0
12340,129,127,127,126,129,129,127,128,0
12344,129,129,127,125,129,128,129,128,0
12348,128,128,128,127,131,127,129,129,0
12351,127,127,127,127,130,127,128,128,0
12354,128,128,126,125,128,127,128,128,0
12358,127,128,126,127,127,127,127,128,0
12363,126,127,126,125,126,126,128,126,0
12367,129,126,126,131,127,128,124,126,0
12373,128,126,125,127,128,129,128,128,0
12376,126,128,127,128,128,129,129,127,0
12379,127,127,127,126,127,127,129,127,0
12383,127,127,128,127,129,128,130,128,0
12386,126,127,125,126,127,128,128,127,0
12391,128,128,127,126,128,129,128,128,0
12395,127,128,126,125,126,127,122,125,0
12400,130,127,128,131,127,128,124,126,0
12405,129,127,128,127,127,129,127,128,0
12408,128,126,127,129,129,128,128,128,0
12411,127,128,128,128,127,126,128,128,0
12415,126,127,128,125,126,126,129,128,0
12418,126,128,128,126,127,127,127,128,0
12421,127,129,128,129,128,128,128,127,0
12425,127,128,129,126,128,127,128,127,0
12428,127,128,131,128,126,123,128,128,0
12431,127,128,128,127,128,128,127,128,0
12433,128,128,129,128,128,128,127,128,0
12436,127,128,128,127,128,128,124,126,0
12439,130,126,129,130,127,127,123,125,0
12442,131,127,128,131,128,126,129,128,0
12445,127,128,129,128,128,128,128,128,0
12450,128,128,127,127,128,126,128,127,0
12453,127,126,128,124,127,127,128,128,0
12457,127,127,129,126,128,129,128,128,0
12460,127,128,127,127,127,129,128,127,0
12462,128,128,127,126,128,127,128,127,0
12465,128,127,127,129,128,128,123,126,0
12469,130,126,127,129,126,125,129,127,0
12472,127,129,127,126,129,128,130,128,0
12476,126,127,128,128,128,128,128,128,0
12479,126,127,127,127,127,127,129,128,0
12482,127,128,130,125,127,129,128,127,0
12485,127,128,127,127,127,129,128,128,0
12488,128,128,128,125,128,128,129,127,0
12492,127,126,128,124,127,127,128,128,0
12497,127,126,127,126,128,128,129,128,0
12502,128,129,128,128,127,129,128,128,0
12506,127,128,127,126,127,127,127,127,0
12510,128,127,127,126,127,126,126,126,0
12513,129,127,127,130,128,128,122,126,0
12516,130,127,128,125,127,129,128,127,0
12519,127,128,128,125,128,128,128,128,0
12522,127,128,128,126,129,127,129,127,0
12525,127,127,129,127,128,127,128,128,0
