Start Recording
5,125,128,127,128,127,128,129,128,0
10,129,128,125,127,128,127,127,129,0
14,128,129,126,127,128,125,130,124,0
34,131,126,130,128,128,126,129,125,0
38,131,126,130,129,127,128,128,128,0
42,127,128,126,127,127,128,128,128,0
46,131,128,129,128,127,127,126,127,0
50,127,126,126,125,127,128,128,128,0
53,125,128,128,127,128,128,129,129,0
57,129,128,127,127,127,128,126,128,0
62,131,128,127,127,127,128,128,126,0
69,127,126,128,130,131,126,127,126,0
73,130,127,128,129,128,128,126,128,0
76,128,129,130,127,126,128,127,128,0
80,130,128,126,126,125,127,125,128,0
83,127,126,129,128,129,127,129,126,0
87,130,127,128,130,129,126,128,129,0
90,129,128,127,127,127,128,127,128,0
94,128,127,126,128,128,129,126,128,0
104,124,126,128,125,126,129,127,128,0
108,124,129,127,127,126,129,125,128,0
112,129,128,129,128,127,128,127,128,0
116,131,128,128,128,127,129,126,129,0
119,126,127,127,127,126,128,129,124,0
123,135,126,127,130,130,125,127,128,0
126,127,128,127,127,126,128,126,128,0
130,130,127,128,126,128,128,126,128,0
133,124,128,128,125,128,129,127,127,0
136,123,127,127,128,127,128,128,129,0
144,125,128,126,128,127,128,127,128,0
148,128,127,127,128,129,128,128,125,0
151,123,128,126,126,127,128,131,126,0
155,131,127,129,129,130,125,128,125,0
159,132,126,127,127,128,128,127,129,0
162,127,129,126,126,126,128,128,128,0
165,125,127,127,127,127,129,127,128,0
169,126,126,129,128,130,125,129,126,0
179,128,129,128,128,127,129,128,128,0
183,129,127,127,127,127,128,128,129,0
188,126,128,127,127,126,129,127,125,0
193,132,127,128,129,129,126,127,124,0
197,127,128,127,126,127,128,128,129,0
200,127,128,127,126,127,128,127,129,0
204,129,127,127,126,127,128,126,127,0
207,124,127,128,126,126,129,126,129,0
210,129,128,128,128,127,128,128,128,0
214,127,128,126,127,128,127,128,127,0
217,126,127,126,129,131,125,131,126,0
221,131,126,129,128,130,126,129,125,0
224,129,126,128,128,126,128,126,128,0
228,131,129,126,127,126,128,127,128,0
231,130,128,128,127,126,128,128,128,0
235,125,127,128,126,128,126,130,127,0
238,126,125,128,127,126,129,127,128,0
241,131,128,128,127,126,128,127,128,0
245,128,129,126,126,123,128,127,128,0
257,126,127,129,129,126,125,130,126,0
261,131,127,128,128,125,128,127,128,0
264,130,128,128,127,127,128,127,129,0
268,127,128,126,126,127,129,129,128,0
271,122,127,128,127,128,128,127,128,0
274,128,127,128,129,128,128,127,128,0
278,130,128,127,127,128,128,127,129,0
281,129,127,129,128,127,129,127,129,0
291,130,126,128,129,131,126,129,126,0
296,131,127,128,130,130,127,128,128,0
300,132,128,128,128,128,128,127,128,0
303,131,127,128,126,127,129,128,128,0
308,124,128,127,127,131,126,129,127,0
314,129,127,129,127,128,129,128,128,0
320,131,128,126,126,129,128,128,128,0
324,130,128,126,126,127,129,127,128,0
327,131,127,128,126,129,126,129,126,0
331,129,127,130,129,128,129,128,128,0
334,127,128,127,127,128,128,128,129,0
338,130,128,128,126,127,128,126,128,0
342,127,127,128,126,127,130,127,129,0
345,125,128,127,127,127,129,128,129,0
349,129,128,126,128,129,128,128,128,0
352,129,127,126,127,127,128,127,128,0
355,129,126,127,130,128,126,129,125,0
358,131,127,131,130,130,125,127,129,0
362,130,128,126,128,127,127,126,128,0
365,129,128,127,127,126,128,127,128,0
368,128,128,127,126,126,128,129,126,0
371,130,127,128,128,130,125,127,127,0
374,127,128,128,126,127,128,128,129,0
377,128,129,126,127,127,128,127,129,0
380,125,128,126,127,125,128,127,128,0
383,125,127,130,129,128,124,127,129,0
385,129,129,127,127,127,128,127,128,0
400,130,128,126,127,126,128,128,129,0
403,127,128,126,127,126,128,127,128,0
407,128,127,129,129,130,125,128,125,0
411,123,129,127,127,127,127,128,128,0
415,128,128,128,128,128,129,127,128,0
418,126,128,128,125,127,127,126,126,0
423,123,127,128,127,126,127,125,128,0
429,127,128,129,128,128,128,126,128,0
432,127,128,127,128,126,128,126,127,0
435,128,127,128,127,127,128,129,126,0
438,129,127,130,129,130,125,130,125,0
441,129,124,127,127,127,128,128,128,0
444,130,128,128,128,127,129,127,129,0
448,126,128,126,127,128,129,127,129,0
451,121,126,129,129,129,126,129,125,0
455,129,127,128,127,126,129,128,128,0
459,130,128,127,127,128,128,126,129,0
463,125,128,126,127,127,129,127,128,0
473,122,127,128,128,130,126,129,125,0
477,128,125,128,127,127,128,128,127,0
481,129,127,127,128,128,129,128,128,0
484,126,129,125,126,126,128,127,126,0
487,119,127,128,130,129,126,130,126,0
491,127,125,128,127,127,128,128,128,0
494,126,129,126,126,128,128,128,128,0
500,127,129,126,127,127,128,127,129,0
509,124,127,128,129,129,126,129,125,0
513,125,127,129,128,128,128,128,128,0
517,125,129,127,128,127,129,129,128,0
520,130,128,127,127,126,128,127,128,0
523,125,128,127,128,131,126,128,126,0
526,129,127,129,129,128,128,127,129,0
529,128,128,127,127,128,128,127,128,0
532,128,128,127,127,127,128,127,128,0
535,121,128,128,125,127,130,128,128,0
541,122,129,127,127,126,128,126,127,0
545,131,128,127,128,128,128,127,127,0
549,130,127,128,128,127,128,126,129,0
551,128,126,129,130,131,125,130,124,0
554,135,127,128,129,126,128,127,129,0
557,127,127,127,128,126,128,127,128,0
560,132,127,126,128,127,130,128,127,0
563,123,127,128,126,127,126,129,125,0
568,130,126,128,129,130,128,126,129,0
570,130,128,128,128,127,128,128,129,0
582,128,128,126,128,129,129,128,128,0
587,122,127,129,129,130,126,129,126,0
591,128,127,128,130,128,128,126,128,0
595,127,128,127,127,127,128,128,129,0
598,130,128,127,126,128,129,128,129,0
601,127,128,127,127,127,130,128,125,0
605,130,127,128,128,127,129,127,128,0
608,127,129,128,128,127,128,128,128,0
619,130,128,127,127,127,128,126,128,0
623,128,128,127,127,127,127,129,126,0
626,129,126,129,129,127,126,129,128,0
633,128,128,128,127,127,128,127,128,0
636,127,128,128,128,127,128,128,128,0
640,127,127,128,127,126,129,128,125,0
643,131,127,128,129,129,126,127,129,0
646,126,128,129,127,127,128,127,128,0
649,129,127,128,127,128,127,126,129,0
652,123,127,129,126,127,129,127,126,0
657,124,128,128,129,129,126,127,126,0
663,129,127,128,127,128,127,128,128,0
666,127,128,128,128,127,128,127,128,0
671,129,128,128,126,127,128,127,129,0
674,125,127,128,128,129,125,129,126,0
677,123,128,128,126,127,127,128,128,0
680,128,128,127,127,127,128,125,128,0
683,128,128,130,127,127,129,126,127,0
686,127,127,129,128,130,126,127,126,0
691,125,129,126,127,128,128,129,128,0
694,130,128,128,127,126,128,128,128,0
697,127,128,127,127,127,129,127,128,0
699,126,126,130,129,129,125,127,126,0
702,120,127,128,127,126,128,128,128,0
705,128,129,126,128,127,127,128,128,0
709,127,128,129,127,127,128,128,128,0
713,125,127,128,129,129,126,128,126,0
728,126,127,127,129,128,126,127,128,0
733,130,129,126,128,127,128,128,128,0
736,128,128,126,127,126,128,126,128,0
740,123,128,128,128,129,125,130,125,0
743,131,126,128,128,127,128,127,128,0
747,128,127,126,127,127,128,127,128,0
750,127,129,127,128,128,128,130,128,0
753,123,127,127,125,126,129,127,126,0
756,127,127,129,129,128,129,129,129,0
759,131,128,128,128,127,128,127,128,0
769,132,128,127,127,127,128,126,128,0
774,126,128,129,129,131,125,130,124,0
780,132,127,128,128,128,129,126,128,0
783,131,128,127,127,127,128,127,128,0
788,127,129,126,127,127,128,128,127,0
792,124,128,127,128,130,126,128,125,0
795,129,126,128,130,125,128,128,128,0
798,130,128,127,128,127,127,128,128,0
803,131,128,128,128,126,129,126,129,0
807,123,127,128,127,130,125,129,126,0
810,129,127,129,129,127,128,127,128,0
813,130,127,127,128,127,128,127,128,0
816,132,128,127,126,127,129,126,129,0
820,123,127,127,125,127,126,128,125,0
823,129,127,128,130,129,126,127,128,0
826,129,128,126,126,127,127,126,128,0
830,130,128,128,128,126,129,125,128,0
833,124,126,128,128,127,129,129,126,0
835,131,127,129,129,130,125,128,129,0
849,130,128,127,128,127,128,128,128,0
853,130,128,127,126,128,128,126,129,0
859,123,128,129,127,127,128,129,126,0
862,129,127,128,129,129,125,127,129,0
866,127,128,127,128,128,128,127,128,0
869,129,129,125,126,127,128,128,129,0
873,126,128,126,127,126,128,130,125,0
876,128,126,128,130,130,125,127,126,0
879,129,129,128,128,128,127,127,128,0
883,130,127,128,128,128,128,125,128,0
886,123,127,127,126,128,127,127,127,0
890,126,126,128,129,130,126,128,126,0
895,129,128,126,127,127,128,129,128,0
901,128,128,127,127,127,128,125,128,0
905,128,128,128,126,126,130,127,127,0
908,124,127,129,130,131,126,128,129,0
911,127,128,127,128,127,128,128,128,0
914,128,128,128,127,127,129,128,128,0
918,128,128,128,127,126,127,127,128,0
923,126,127,128,129,131,125,129,125,0
926,126,128,127,127,127,128,126,129,0
929,127,128,127,128,126,128,126,128,0
937,129,128,128,127,126,128,128,127,0
940,126,127,128,127,130,125,129,126,0
943,128,129,126,126,128,127,128,128,0
946,128,128,127,128,128,128,128,128,0
949,129,128,129,125,127,129,128,128,0
952,124,127,128,126,126,127,125,129,0
956,126,129,127,127,126,127,127,128,0
965,128,128,127,128,126,127,127,127,0
968,127,128,129,128,127,129,126,127,0
972,129,127,128,129,129,125,130,126,0
975,129,127,128,128,127,128,128,128,0
978,131,128,126,128,128,127,129,128,0
982,129,128,127,126,128,127,126,128,0
985,124,126,128,129,130,126,129,127,0
988,129,126,128,127,126,128,128,129,0
991,130,129,127,127,127,128,129,129,0
994,128,128,126,127,126,129,127,128,0
997,126,127,128,129,130,126,129,125,0
1012,131,126,128,126,128,129,129,129,0
1019,128,129,126,127,128,128,126,129,0
1026,127,128,126,127,127,129,127,128,0
1029,126,128,128,127,128,126,129,126,0
1033,129,127,128,129,127,128,128,129,0
1036,129,128,128,127,126,128,128,128,0
1039,130,127,127,128,128,128,126,127,0
1042,123,127,128,126,129,126,129,125,0
1046,129,127,128,129,127,129,127,129,0
1049,127,128,127,128,127,128,128,129,0
1052,128,127,127,127,127,129,126,129,0
1055,124,127,127,125,128,126,128,125,0
1058,131,127,128,129,128,128,127,128,0
1061,126,128,127,127,128,128,128,128,0
1064,129,128,126,127,126,129,128,128,0
1066,126,127,127,127,127,126,131,125,0
1069,133,127,128,130,129,129,127,128,0
1072,129,129,127,128,127,127,128,128,0
1074,129,128,128,127,127,128,126,129,0
1077,122,127,128,126,127,129,131,127,0
1080,129,127,129,129,128,127,126,129,0
1097,128,128,128,128,127,128,128,128,0
1102,129,128,127,127,125,128,128,128,0
1105,127,128,128,127,126,128,130,124,0
1109,131,127,128,129,129,126,128,128,0
1113,129,128,127,128,127,128,127,128,0
1116,130,127,129,127,126,129,126,128,0
1119,127,128,129,127,126,128,130,126,0
1123,128,127,128,129,130,125,127,129,0
1126,130,128,127,127,127,129,127,128,0
1129,128,127,126,128,128,128,127,129,0
1134,126,128,127,126,127,128,127,128,0
1138,125,126,130,129,129,126,127,124,0
1145,126,128,126,126,126,128,128,128,0
1151,128,128,126,127,127,128,127,129,0
1154,123,128,127,126,126,128,126,127,0
1157,128,127,128,128,130,126,128,126,0
1160,129,128,127,128,127,127,125,128,0
1163,129,128,128,128,126,128,125,128,0
1167,129,128,129,128,127,127,127,127,0
1190,122,127,128,129,130,126,128,125,0
1196,130,127,128,128,127,127,125,128,0
1201,129,128,127,128,127,129,125,128,0
1205,127,128,129,127,127,128,126,128,0
1208,126,127,129,129,129,125,128,125,0
1211,131,125,128,128,126,128,127,128,0
1215,127,128,126,129,127,129,126,128,0
1219,128,127,128,127,126,128,126,128,0
1222,123,127,128,129,130,125,129,126,0
1226,130,127,126,125,127,128,127,128,0
1230,128,128,126,128,128,127,127,128,0
1234,127,128,127,127,127,129,128,128,0
1240,123,128,127,126,127,127,126,128,0
1243,125,129,126,127,127,127,128,128,0
1246,128,128,125,129,128,127,129,127,0
1249,126,127,127,127,128,129,128,128,0
1253,123,127,130,127,129,126,128,126,0
1257,131,127,127,127,126,128,129,128,0
1260,128,128,127,127,128,128,127,128,0
1264,127,127,126,126,126,128,128,128,0
1267,124,127,128,128,131,125,133,125,0
1271,129,126,127,127,126,128,128,129,0
1276,131,127,127,128,128,128,127,127,0
1279,130,127,129,127,127,128,127,128,0
1283,128,126,128,129,129,126,129,126,0
1286,130,127,129,126,128,129,127,128,0
1289,129,128,128,127,128,127,126,128,0
1293,130,127,128,127,126,129,126,127,0
1296,125,128,128,127,126,127,128,125,0
1300,126,126,128,128,126,129,129,128,0
1304,129,128,126,129,127,128,127,128,0
1307,127,129,126,127,126,129,126,129,0
1310,126,127,128,125,128,126,128,126,0
1314,129,127,129,129,129,126,127,128,0
1317,129,128,126,127,126,128,128,129,0
1320,128,129,126,127,127,129,127,129,0
1322,125,127,126,127,127,130,127,126,0
1325,124,127,128,129,130,125,127,128,0
1328,127,129,126,129,127,127,126,128,0
1331,130,128,127,127,127,129,126,127,0
1337,129,127,128,127,127,126,130,126,0
1342,129,127,129,129,129,127,127,128,0
1345,127,127,127,126,128,127,126,128,0
1348,130,128,127,129,127,129,126,128,0
1351,129,128,127,125,127,128,127,127,0
1354,127,127,129,129,129,125,128,126,0
1359,130,128,128,126,128,129,128,128,0
1361,128,128,126,128,128,128,127,129,0
1373,128,128,128,127,126,128,129,125,0
1377,130,127,129,128,130,125,127,126,0
1380,128,128,127,128,127,129,128,128,0
1388,131,128,126,127,128,128,128,129,0
1391,126,128,127,126,127,130,127,126,0
1394,120,126,129,128,130,126,129,125,0
1398,123,128,128,127,128,128,126,128,0
1401,130,128,126,127,126,129,125,129,0
1405,127,128,127,127,127,128,126,128,0
1408,125,126,129,129,130,126,129,125,0
1412,123,128,128,127,128,128,128,128,0
1416,131,128,128,128,127,128,126,128,0
1420,128,128,126,126,127,127,127,128,0
1423,126,126,131,129,129,126,129,125,0
1426,127,128,127,127,127,128,127,129,0
1429,127,128,128,128,128,128,127,129,0
1434,127,128,128,126,127,128,125,128,0
1437,126,126,128,128,130,125,129,126,0
1441,129,126,126,127,126,128,128,129,0
1445,128,127,126,127,127,128,126,128,0
1447,130,129,126,126,126,128,128,128,0
1452,124,128,129,129,129,126,130,126,0
1455,129,126,127,126,127,128,127,129,0
1458,131,128,126,128,127,128,126,127,0
1461,130,128,127,126,125,128,127,128,0
1463,124,126,127,126,126,126,128,125,0
1466,130,126,127,127,126,127,127,128,0
1469,130,128,126,128,128,128,128,128,0
1472,127,128,128,128,127,129,126,128,0
1489,127,127,128,129,130,126,128,127,0
1493,129,127,128,126,127,128,127,128,0
1496,130,129,127,127,128,127,127,129,0
1502,127,129,126,127,126,128,127,129,0
1507,128,128,128,127,129,125,127,126,0
1513,131,127,128,126,127,128,127,128,0
1518,127,129,126,127,128,127,128,128,0
1521,127,127,128,127,126,129,126,128,0
1524,126,126,127,125,128,126,127,126,0
1527,130,127,129,128,127,128,127,128,0
1531,129,128,127,127,127,127,128,128,0
1534,128,128,126,127,126,128,128,128,0
1537,125,129,128,128,130,126,130,127,0
1547,128,127,128,129,126,128,128,129,0
1551,129,128,127,128,127,127,130,128,0
1555,127,128,128,128,127,129,126,128,0
1558,123,128,130,128,129,126,128,125,0
1562,131,126,129,128,128,127,128,128,0
1565,130,127,126,128,128,128,128,128,0
1568,128,128,127,126,128,129,125,129,0
1572,123,127,127,125,126,128,126,126,0
1575,122,127,127,126,128,127,127,128,0
1578,127,127,129,128,127,128,126,127,0
1580,125,128,125,127,125,127,127,128,0
1583,125,128,127,127,127,126,132,125,0
1586,135,127,128,129,130,125,128,128,0
1589,129,128,128,127,128,127,128,129,0
1597,130,128,127,127,126,129,126,129,0
1601,127,127,127,128,127,127,129,126,0
1604,129,126,130,129,129,125,127,128,0
1611,129,128,127,128,127,128,128,128,0
1614,128,128,126,127,128,129,126,128,0
1617,122,127,128,126,127,129,128,127,0
1621,121,127,128,128,130,125,129,125,0
1627,125,129,128,127,128,128,128,129,0
1634,127,127,126,128,128,128,127,129,0
1638,126,128,126,127,126,129,127,129,0
1641,125,127,129,129,129,126,128,124,0
1645,124,128,127,127,129,129,128,128,0
1648,128,129,128,128,128,128,127,128,0
1652,127,127,129,126,128,127,128,128,0
1655,122,127,128,129,130,126,129,125,0
1658,129,128,128,127,128,128,128,128,0
1661,128,128,128,128,128,129,128,129,0
1665,128,128,127,125,128,129,128,129,0
1668,119,127,128,127,126,129,127,129,0
1672,126,127,126,127,127,127,128,129,0
1675,129,127,127,128,127,128,128,128,0
1678,127,128,127,128,128,129,126,127,0
1680,128,126,129,128,129,125,131,127,0
1683,129,126,128,127,126,128,127,128,0
1687,130,129,126,128,128,128,127,128,0
1691,126,128,127,128,127,129,128,127,0
1694,124,127,129,129,129,125,130,127,0
1706,130,127,127,127,126,127,129,128,0
1711,128,128,127,128,126,128,127,128,0
1715,129,128,128,127,127,129,125,128,0
1719,125,127,129,129,128,126,129,126,0
1723,130,126,129,130,126,129,126,128,0
1728,129,128,127,128,127,127,129,129,0
1731,129,127,127,127,126,129,126,128,0
1734,126,127,130,125,126,129,128,126,0
1741,127,127,127,126,128,128,128,128,0
1744,128,128,128,128,127,128,126,128,0
1749,130,128,129,128,127,128,126,127,0
1755,128,126,130,129,129,125,129,125,0
1760,131,127,128,129,126,129,128,128,0
1763,129,129,127,127,127,127,128,128,0
1767,131,128,126,127,125,129,126,128,0
1770,123,127,130,126,127,127,127,125,0
1778,129,127,129,129,129,127,126,128,0
1781,129,128,126,128,128,127,130,129,0
1785,128,128,127,128,126,129,126,128,0
1788,128,127,128,125,127,128,130,127,0
1791,128,127,128,130,127,129,127,128,0
1795,128,128,127,128,127,127,128,128,0
1798,127,129,126,127,127,128,127,129,0
1801,127,128,129,130,130,125,129,126,0
1804,127,127,127,130,128,129,127,128,0
1808,128,128,127,127,127,128,127,128,0
1815,130,128,128,127,126,129,128,129,0
1819,126,128,127,127,127,126,127,125,0
1822,129,127,130,128,129,126,128,129,0
1826,129,128,126,128,128,129,127,128,0
1829,127,127,128,128,128,129,128,128,0
1832,124,127,126,126,126,128,129,125,0
1836,130,127,129,129,129,126,126,128,0
1839,127,129,128,128,127,128,128,127,0
1850,131,128,128,126,128,128,127,128,0
1854,126,129,127,127,127,129,128,126,0
1858,123,127,128,128,130,125,128,126,0
1861,126,128,128,128,128,128,127,128,0
1864,127,128,127,128,126,129,125,128,0
1870,128,128,129,127,126,128,126,127,0
1874,121,127,127,127,126,129,127,129,0
1879,130,128,127,127,128,130,127,128,0
1887,131,128,127,128,126,128,127,128,0
1893,129,126,127,126,127,128,128,127,0
1896,130,127,128,129,132,125,130,125,0
1899,123,127,128,128,126,128,128,128,0
1903,130,127,126,127,126,128,126,128,0
1906,129,128,129,127,127,128,126,128,0
1909,123,126,129,128,129,126,128,126,0
1912,132,127,128,127,127,128,129,128,0
1916,129,127,127,128,127,128,128,128,0
1919,129,128,128,127,126,127,127,128,0
1922,123,127,129,128,129,125,130,126,0
1925,128,127,127,125,127,129,128,128,0
1928,129,127,126,128,128,128,127,129,0
1931,127,128,127,127,126,128,128,128,0
1934,119,127,129,129,130,124,132,127,0
1937,125,128,126,126,126,128,127,129,0
1940,127,128,127,127,126,128,128,128,0
1944,127,128,126,127,126,129,127,128,0
1947,123,126,130,129,128,126,130,125,0
1959,130,127,127,128,126,127,127,129,0
1963,130,128,126,128,127,128,128,128,0
1968,130,128,127,127,127,129,127,129,0
1972,124,128,130,129,129,125,130,127,0
1976,129,127,129,126,127,128,128,129,0
1982,127,129,127,128,127,128,127,128,0
1985,129,128,127,127,127,129,126,129,0
1989,125,127,127,128,130,126,128,126,0
1995,128,126,128,130,128,128,127,128,0
1998,129,127,127,127,127,128,127,128,0
2003,129,127,127,128,128,130,126,128,0
2010,123,127,126,127,126,129,129,124,0
2015,131,127,128,129,127,128,126,128,0
2018,130,128,127,128,127,127,128,128,0
2021,127,128,126,126,127,129,127,128,0
2025,127,127,128,127,128,125,128,126,0
2028,130,127,129,129,127,129,129,128,0
2031,129,128,126,128,127,128,127,128,0
2035,130,128,128,126,128,128,128,128,0
2038,121,127,127,128,129,125,129,126,0
2041,129,127,129,128,129,129,127,129,0
2044,127,128,128,128,127,128,128,128,0
2048,130,128,127,127,126,130,126,128,0
2051,127,128,128,127,127,126,129,126,0
2065,129,127,130,129,129,125,126,128,0
2071,130,128,126,128,127,127,126,128,0
2075,128,128,127,127,126,128,126,128,0
2080,126,128,127,127,126,129,127,127,0
2084,122,127,128,128,126,130,127,128,0
2087,129,128,127,129,128,128,128,128,0
2091,128,128,128,128,128,129,127,127,0
2094,123,127,127,127,127,128,126,127,0
2097,133,126,129,129,131,124,128,127,0
2101,129,129,126,127,128,127,128,128,0
2104,129,128,126,126,126,128,128,128,0
2143,126,128,126,127,128,128,128,125,0
2161,130,127,130,128,129,125,128,125,0
2172,127,127,128,126,126,128,126,128,0
2182,130,128,126,125,129,128,126,128,0
2188,128,127,129,127,126,128,127,126,0
2208,127,125,129,128,128,126,128,125,0
2212,123,128,127,126,128,129,127,128,0
2216,126,128,127,126,128,128,125,128,0
2277,127,127,127,127,126,129,127,128,0
2291,126,126,129,128,129,126,128,126,0
2300,126,127,126,127,127,128,127,129,0
2309,128,128,128,128,127,127,129,129,0
2315,129,128,127,126,126,128,127,129,0
2343,119,128,128,127,127,128,126,129,0
2349,125,127,127,127,128,127,127,128,0
2354,130,128,128,128,128,127,127,127,0
2360,125,127,127,128,128,128,126,128,0
2364,125,127,129,130,131,124,131,126,0
2368,129,127,127,126,127,128,129,129,0
2371,128,128,127,128,128,128,128,128,0
2374,126,129,126,126,126,128,127,128,0
2378,122,128,130,129,130,125,133,125,0
2381,128,127,127,128,128,128,127,128,0
2384,128,127,127,126,127,127,127,128,0
2388,127,128,126,127,126,128,127,128,0
2391,125,127,127,128,130,125,128,126,0
2394,130,126,127,126,127,128,127,128,0
2397,130,127,127,128,126,128,126,129,0
2401,128,128,125,127,126,128,128,129,0
2410,121,128,127,129,128,126,129,126,0
2414,131,127,128,127,127,128,128,129,0
2419,129,128,127,126,127,128,126,128,0
2424,131,128,128,128,126,128,125,127,0
2428,127,127,129,126,129,126,128,125,0
2431,130,127,128,129,126,128,128,128,0
2435,128,128,127,128,127,128,127,128,0
2438,131,128,127,127,126,129,127,129,0
2484,126,128,127,128,130,126,128,125,0
2499,130,127,129,130,128,126,127,129,0
2512,127,128,126,129,128,128,128,129,0
2517,129,128,127,127,128,129,128,128,0
2522,121,127,127,127,127,127,130,127,0
2546,129,127,128,128,129,127,128,129,0
2562,128,128,127,128,127,127,128,128,0
2569,128,129,125,128,127,129,127,129,0
2577,123,128,127,127,127,127,129,127,0
2587,128,127,128,129,129,126,128,128,0
2594,128,128,126,128,127,128,127,128,0
2600,129,128,126,127,127,128,129,129,0
2609,126,128,127,127,126,129,127,126,0
2614,125,126,128,129,128,125,127,128,0
2618,130,128,127,127,127,128,127,128,0
2623,130,128,128,128,128,128,127,127,0
2627,124,127,128,126,126,128,130,125,0
2630,131,127,130,129,129,125,129,125,0
2633,124,128,128,128,127,128,128,127,0
2637,129,129,126,128,127,129,125,128,0
2640,125,127,126,126,127,128,126,126,0
2643,126,126,128,129,129,125,128,128,0
2649,129,128,128,128,126,128,127,128,0
2653,127,129,127,128,127,129,126,127,0
2661,125,128,128,128,126,129,126,128,0
2665,125,127,129,129,130,126,127,125,0
2670,124,129,126,127,128,128,128,128,0
2674,129,128,127,127,127,128,126,128,0
2680,127,128,128,125,127,127,126,127,0
2683,126,126,129,128,130,126,129,126,0
2687,129,128,128,127,127,127,128,128,0
2690,128,128,127,127,126,127,128,128,0
2693,129,129,127,127,127,129,127,128,0
2697,124,126,130,128,130,125,128,125,0
2700,131,127,128,127,127,128,126,128,0
2703,127,127,127,128,128,128,129,128,0
2706,128,128,127,126,126,128,126,128,0
2710,123,128,129,127,131,125,129,126,0
2713,128,127,127,127,127,128,128,128,0
2716,130,129,126,127,126,128,128,129,0
2720,126,128,127,126,128,128,126,129,0
2723,124,127,129,130,129,126,127,125,0
2727,126,128,127,126,127,128,127,127,0
2731,131,128,128,127,129,129,126,128,0
2735,128,128,126,127,126,129,127,128,0
2738,125,127,130,127,130,125,129,126,0
2740,128,126,128,127,127,128,127,128,0
2744,129,128,127,128,128,128,128,128,0
2747,128,128,126,127,126,129,127,128,0
2750,124,127,128,128,130,126,129,127,0
2754,131,127,127,127,126,128,128,128,0
2757,128,128,126,128,128,128,127,128,0
2761,128,128,127,127,127,129,127,128,0
2767,121,127,127,127,130,125,128,126,0
2771,130,126,129,127,127,128,129,129,0
2773,130,128,128,128,128,127,127,128,0
2776,128,128,126,126,128,129,129,128,0
2779,121,128,127,128,130,126,132,125,0
2782,132,127,128,128,127,129,127,128,0
2785,128,127,127,126,127,128,127,128,0
2787,130,128,128,127,126,129,124,127,0
2791,124,127,127,126,127,126,130,126,0
2794,131,127,128,128,128,129,126,128,0
2797,127,129,128,127,128,129,126,128,0
2801,130,127,127,127,126,129,126,128,0
2803,128,127,127,128,126,129,128,125,0
2813,129,127,128,128,129,125,129,128,0
2817,126,129,126,129,128,129,127,128,0
2821,128,128,126,128,128,129,127,129,0
2825,126,128,128,126,126,128,128,126,0
2828,130,127,128,128,130,124,127,128,0
2832,128,128,127,128,127,128,126,128,0
2888,130,128,128,128,127,128,126,128,0
2899,124,128,128,126,127,128,127,127,0
2907,126,126,129,130,130,125,127,128,0
2914,128,129,127,128,128,127,127,128,0
2920,128,128,126,127,126,129,128,129,0
2925,124,128,126,126,128,128,128,126,0
2930,128,127,127,128,130,126,127,128,0
2940,127,127,127,128,127,127,126,128,0
2944,130,128,128,127,128,129,128,129,0
2951,123,127,127,126,127,128,128,128,0
2958,128,126,129,129,129,126,127,124,0
2966,126,128,125,128,127,128,127,128,0
2970,128,128,128,126,128,128,126,128,0
2973,126,128,126,127,126,128,130,126,0
2976,129,127,128,129,129,126,128,125,0
2979,125,128,128,127,128,128,127,128,0
2982,127,129,127,128,127,128,127,128,0
2985,127,128,125,125,127,129,127,127,0
2988,123,127,129,129,130,126,129,125,0
2991,123,128,128,127,127,128,127,128,0
2993,128,128,127,127,128,128,127,128,0
2996,127,128,126,127,126,129,127,128,0
2999,123,127,129,129,129,125,127,126,0
3001,129,127,128,127,126,127,127,128,0
3004,131,129,127,128,127,127,126,129,0
3007,128,128,128,126,128,128,126,129,0
3010,123,127,130,129,130,126,128,126,0
3015,127,126,128,127,126,128,126,128,0
3018,127,127,128,128,128,129,128,129,0
3021,127,128,126,126,126,128,128,128,0
3024,124,127,129,129,130,126,130,126,0
3027,130,126,127,127,128,129,128,128,0
3030,128,128,127,127,127,128,128,128,0
3034,128,128,126,127,127,129,129,128,0
3037,124,126,130,129,129,126,129,126,0
3041,130,127,126,126,127,128,128,128,0
3044,130,128,127,127,126,128,126,128,0
3047,129,128,128,126,127,129,127,125,0
3050,125,127,129,129,130,126,127,126,0
3055,131,126,127,127,127,128,128,128,0
3069,130,129,128,127,127,127,128,128,0
3074,130,128,127,127,126,129,126,129,0
3078,125,127,128,125,129,125,129,126,0
3081,129,127,128,129,127,128,129,129,0
3084,126,128,126,128,127,127,128,128,0
3088,127,128,126,127,127,129,126,128,0
3091,126,127,128,128,127,129,127,128,0
3095,120,128,127,127,126,128,126,128,0
3098,132,127,125,128,127,128,127,128,0
3105,123,128,128,129,130,124,130,125,0
3110,136,126,129,128,127,128,127,128,0
3101,128,127,125,128,128,128,128,128,0
3114,127,128,126,127,127,127,126,129,0
3117,128,128,126,126,127,128,127,127,0
3121,123,127,127,125,127,129,129,125,0
3124,130,127,129,128,128,128,126,128,0
3128,130,128,128,128,128,128,126,128,0
3133,130,128,128,127,127,130,126,128,0
3137,125,128,128,127,126,129,130,125,0
3140,129,127,129,129,130,125,129,124,0
3144,126,128,126,128,127,128,128,128,0
3148,130,128,127,127,127,129,127,129,0
3151,122,129,126,125,126,129,129,126,0
3155,129,126,128,130,130,126,126,129,0
3159,129,129,128,128,128,128,129,128,0
3162,128,128,126,128,127,129,127,128,0
3165,128,128,128,128,127,129,128,126,0
3169,128,127,128,128,129,125,128,127,0
3172,128,129,127,126,128,128,128,128,0
3176,128,128,127,126,128,129,127,128,0
3179,127,128,127,127,127,129,126,129,0
3183,124,126,128,130,130,125,129,128,0
3188,126,128,127,128,128,127,128,129,0
3191,129,127,126,126,128,128,126,129,0
3197,125,128,127,128,127,127,127,128,0
3204,124,127,129,129,129,126,128,125,0
3208,126,128,127,127,127,128,129,128,0
3212,129,128,127,127,128,128,126,128,0
3216,126,127,127,126,128,129,126,127,0
3219,124,126,128,129,130,125,129,125,0
3223,126,128,128,127,127,127,128,128,0
3227,129,128,126,128,128,128,127,129,0
3230,127,127,127,126,127,129,127,128,0
3233,120,128,128,130,131,125,128,125,0
3236,127,128,126,128,127,128,127,128,0
3238,131,128,128,128,128,129,128,128,0
3241,130,127,130,128,127,128,126,126,0
3245,130,127,129,129,129,126,130,126,0
3248,130,126,128,126,127,128,127,128,0
3251,128,128,127,128,127,128,128,128,0
3253,129,128,127,126,126,128,127,128,0
3257,123,125,128,129,130,126,129,127,0
3265,128,127,128,127,127,128,128,128,0
3270,128,128,126,128,127,128,128,128,0
3274,128,128,128,127,126,128,127,127,0
3277,123,127,127,127,129,127,127,126,0
3280,131,126,128,128,126,128,128,128,0
3284,129,129,127,128,127,128,128,129,0
3288,128,128,127,126,128,128,126,128,0
3291,126,126,128,129,130,126,128,127,0
3294,129,126,128,128,128,128,128,129,0
3299,129,128,127,127,127,127,128,129,0
3303,130,128,127,127,127,129,126,129,0
3306,125,128,128,127,127,129,128,125,0
3309,124,128,126,127,128,128,128,129,0
3314,128,127,128,128,128,127,127,128,0
3320,129,129,128,128,126,128,126,128,0
3324,124,127,128,127,130,125,133,124,0
3327,134,127,128,128,127,128,127,128,0
3329,127,128,126,126,128,128,126,128,0
3332,130,128,126,127,125,128,125,127,0
3335,127,127,129,125,126,129,127,126,0
3337,128,127,128,128,130,125,127,128,0
3341,129,128,127,129,127,129,128,128,0
3344,130,128,129,128,127,129,126,127,0
3346,123,128,128,126,126,128,126,127,0
3350,130,127,129,129,128,125,129,129,0
3354,128,128,126,128,127,128,129,128,0
3356,130,128,127,128,127,129,125,127,0
3361,127,128,129,128,128,126,128,126,0
3364,129,126,128,128,130,125,127,128,0
3367,130,128,128,127,127,128,128,128,0
3372,129,128,127,128,126,128,127,129,0
3374,128,128,128,127,126,129,127,126,0
3377,133,127,131,130,129,126,128,128,0
3381,127,128,126,128,129,127,126,127,0
3384,130,128,127,127,127,128,127,128,0
3386,127,128,127,127,126,128,127,126,0
3390,130,127,127,129,130,125,129,127,0
3393,129,128,127,127,128,128,127,128,0
3396,126,127,127,128,128,129,127,128,0
3399,127,127,127,126,128,128,128,126,0
3402,128,127,129,129,129,125,129,125,0
3405,124,128,128,128,127,128,127,129,0
3415,128,128,126,128,126,128,126,128,0
3420,129,128,129,127,126,128,126,127,0
3425,126,126,128,130,129,126,128,125,0
3430,123,127,126,126,127,128,125,129,0
3439,128,128,127,128,128,128,127,129,0
3445,126,128,126,127,126,129,126,129,0
3449,121,125,130,129,130,125,128,125,0
3452,129,128,127,127,126,128,129,128,0
3456,130,128,128,128,127,128,128,129,0
3459,127,129,126,126,126,129,127,126,0
3462,127,127,129,128,129,126,129,126,0
3466,124,128,126,127,126,128,127,128,0
3471,131,128,126,127,128,128,127,128,0
3474,125,128,126,127,128,128,127,127,0
3476,122,127,129,129,130,126,128,126,0
3479,130,126,128,128,126,128,128,128,0
3482,131,128,127,126,128,129,127,128,0
3485,130,127,128,127,126,128,126,128,0
3488,126,128,129,128,131,126,128,126,0
3491,130,126,126,127,126,128,129,128,0
3494,130,128,126,128,127,128,127,128,0
3496,129,128,128,127,126,128,126,128,0
3499,126,128,128,129,129,126,130,126,0
3502,129,126,129,127,127,128,129,127,0
3505,129,128,127,127,127,127,128,129,0
3508,126,128,125,126,128,129,128,129,0
3512,122,127,129,130,128,126,128,126,0
3517,130,127,129,127,127,128,127,128,0
3520,128,128,127,128,127,127,127,128,0
3524,129,128,128,127,126,128,125,129,0
3527,126,128,128,125,129,126,129,127,0
3531,128,127,129,129,126,128,128,129,0
3534,127,128,127,128,128,128,128,129,0
3537,128,128,126,126,126,129,126,128,0
3542,126,128,128,127,127,129,127,129,0
3549,124,128,126,127,125,128,127,127,0
3552,131,128,126,128,127,129,127,128,0
3554,129,127,128,128,127,128,128,127,0
3558,127,128,128,127,128,125,132,124,0
3561,135,127,128,129,128,126,128,128,0
3564,128,128,127,127,127,128,127,128,0
3567,131,128,126,127,125,129,126,127,0
3570,125,127,129,127,127,126,130,125,0
3574,130,127,128,128,130,125,127,128,0
3577,130,128,126,127,127,128,128,129,0
3583,128,128,125,127,127,129,126,128,0
3586,128,127,128,126,126,129,130,125,0
3589,130,127,128,129,130,125,127,128,0
3592,131,127,127,128,128,128,128,129,0
3596,129,128,126,127,126,129,126,128,0
3600,126,127,127,126,128,128,128,126,0
3603,128,126,128,128,129,125,129,128,0
3608,129,128,127,128,128,127,128,128,0
3613,132,129,126,127,129,128,128,128,0
3617,127,128,127,127,128,129,129,126,0
3622,130,128,128,129,130,125,129,126,0
3627,130,128,126,128,127,129,126,128,0
3630,126,128,126,127,128,128,128,129,0
3634,128,128,128,127,126,128,126,126,0
3637,126,126,131,128,129,126,129,125,0
3640,127,129,128,126,127,128,128,128,0
3644,128,128,128,128,127,127,127,129,0
3647,125,129,127,125,127,129,128,128,0
3651,123,126,128,129,129,126,130,126,0
3655,129,128,127,128,128,129,128,129,0
3659,129,128,126,126,127,128,127,129,0
3662,125,127,130,128,127,128,125,127,0
3667,125,126,128,128,129,126,129,126,0
3671,128,128,126,128,127,128,128,128,0
3676,129,128,127,128,127,128,128,128,0
3680,126,128,127,127,127,128,125,127,0
3683,126,126,128,129,131,126,127,126,0
3690,127,128,126,128,127,127,127,128,0
3686,131,126,128,126,127,128,128,128,0
3693,128,128,126,128,128,129,125,127,0
3696,122,128,130,129,129,125,129,126,0
3700,129,127,128,126,127,127,126,128,0
3703,128,128,127,128,126,128,126,128,0
3707,127,128,127,127,125,128,124,128,0
3713,124,128,131,129,129,126,127,125,0
3717,132,126,127,126,128,128,127,128,0
3721,127,127,128,129,128,128,127,128,0
3725,127,128,126,127,127,129,127,128,0
3728,124,127,129,130,130,126,128,126,0
3731,130,126,129,129,126,128,127,128,0
3734,128,128,128,127,127,128,127,128,0
3738,128,128,126,127,126,129,126,128,0
3741,127,127,129,127,130,126,127,126,0
3745,129,127,128,126,127,128,128,128,0
3748,129,128,126,127,126,128,126,128,0
3751,129,128,128,128,127,129,127,128,0
3755,123,127,128,127,128,125,129,125,0
3758,129,127,129,129,125,128,126,128,0
3761,128,129,126,127,127,128,128,128,0
3764,129,128,125,127,126,128,126,128,0
3767,127,127,128,127,126,127,130,126,0
3771,128,127,128,129,128,128,127,128,0
3774,128,128,126,127,127,128,127,129,0
3779,127,128,126,126,126,128,128,128,0
3783,126,128,127,127,126,128,126,125,0
3786,123,127,128,127,123,129,126,128,0
3789,128,128,128,128,125,128,127,127,0
3792,129,128,129,128,125,129,127,126,0
3795,125,125,129,129,129,125,131,123,0
3798,135,127,128,128,129,125,127,128,0
3804,129,128,127,127,128,128,128,129,0
3807,129,128,127,128,127,129,127,128,0
3810,130,128,129,127,126,128,129,125,0
3814,132,127,128,129,130,126,128,129,0
3817,131,128,127,127,128,127,127,128,0
3820,134,128,125,126,128,128,128,129,0
3824,133,126,126,127,128,129,128,126,0
3828,131,126,128,128,130,125,128,129,0
3831,131,128,127,128,128,127,126,128,0
3836,130,129,126,128,129,128,127,128,0
3840,126,127,127,126,128,129,128,126,0
3843,128,126,129,129,132,125,129,125,0
3846,123,128,127,126,129,127,129,129,0
3849,127,128,127,127,127,127,127,129,0
3852,125,127,128,127,128,129,127,128,0
3857,119,127,127,127,127,129,127,129,0
3859,128,129,126,127,128,127,129,128,0
3863,128,128,127,128,128,128,126,128,0
3866,128,128,128,127,128,127,128,124,0
3870,129,127,130,129,129,125,129,126,0
3874,128,126,128,128,126,128,129,128,0
3879,126,128,126,128,127,129,126,128,0
3882,126,128,129,127,128,128,127,128,0
3886,125,127,128,127,127,129,127,129,0
3892,123,127,126,127,128,128,128,128,0
3897,128,128,127,128,128,128,126,128,0
3900,126,127,128,127,128,128,127,127,0
3904,120,127,129,130,131,123,133,124,0
3907,133,127,127,126,128,128,126,129,0
3910,127,128,128,127,128,128,128,128,0
3914,124,128,126,126,127,129,126,128,0
3917,124,126,129,127,129,126,128,127,0
3921,128,126,127,127,126,128,128,128,0
3924,125,128,127,127,128,128,126,129,0
3928,128,128,129,126,127,129,127,124,0
3931,124,128,128,128,128,125,129,126,0
3934,130,127,128,129,129,127,127,129,0
3937,128,128,126,128,127,128,127,128,0
3940,128,128,128,128,128,129,127,126,0
3943,122,126,129,129,129,126,128,127,0
3946,128,127,127,128,126,129,127,128,0
3949,129,128,128,128,127,128,127,129,0
3952,128,128,128,127,126,128,126,128,0
3955,127,127,127,127,129,125,130,126,0
3958,129,127,128,129,126,129,128,128,0
3961,129,129,127,128,127,128,128,128,0
3963,129,128,128,128,127,129,128,128,0
3966,122,127,127,125,128,125,129,126,0
3970,130,127,129,128,129,127,128,129,0
3973,127,128,127,127,127,127,128,129,0
3975,128,128,126,127,126,128,128,128,0
3978,124,127,128,127,127,127,130,126,0
3981,129,127,128,129,129,126,128,128,0
3984,128,128,127,127,127,128,128,129,0
3988,128,128,126,128,127,129,127,128,0
3991,124,127,127,125,127,128,128,125,0
3995,130,127,127,129,129,125,127,128,0
4001,129,128,126,128,127,128,126,127,0
4004,128,129,126,127,127,128,127,128,0
4007,127,128,129,127,126,127,126,125,0
4010,124,127,127,127,126,129,127,128,0
4013,127,129,126,128,127,127,127,127,0
4022,129,128,128,128,126,129,126,128,0
4025,128,127,128,130,130,126,127,126,0
4028,129,127,129,127,129,125,127,128,0
4032,127,128,127,128,128,127,127,128,0
4037,126,128,126,126,127,128,129,129,0
4040,125,128,127,127,127,128,128,126,0
4043,128,125,128,129,129,124,127,128,0
4047,127,128,127,126,126,128,127,128,0
4050,129,128,126,127,127,127,127,129,0
4053,123,128,125,125,127,129,127,126,0
4058,119,128,128,127,127,128,126,128,0
4062,129,128,128,128,126,127,128,128,0
4064,130,128,127,128,127,128,128,128,0
4067,128,128,127,127,127,128,129,124,0
4070,135,126,128,130,130,125,129,126,0
4073,123,128,129,128,127,127,128,128,0
4075,130,128,128,128,126,128,128,128,0
4078,128,128,126,127,125,128,128,128,0
4081,123,126,128,128,129,125,129,126,0
4083,129,128,126,128,127,128,127,128,0
4086,130,128,128,127,126,128,129,128,0
4089,127,128,125,126,125,129,129,129,0
4093,126,125,130,128,128,125,130,126,0
4098,130,126,127,125,126,128,128,128,0
4104,132,128,126,128,127,128,128,128,0
4108,130,128,126,126,126,128,129,128,0
4111,126,128,128,126,127,128,127,129,0
4115,129,128,127,127,125,128,128,128,0
4118,130,128,128,128,128,129,127,128,0
4121,129,127,128,127,127,127,126,127,0
4125,126,126,128,129,129,125,128,126,0
4130,131,127,127,127,126,128,129,128,0
4133,131,129,127,128,129,128,127,128,0
4136,129,128,129,126,127,128,127,125,0
4139,126,127,128,128,129,126,130,126,0
4142,129,127,128,127,126,128,129,129,0
4146,130,129,127,127,127,128,126,128,0
4150,130,128,127,127,126,129,126,128,0
4153,126,128,127,125,129,125,129,126,0
4157,129,127,131,129,128,129,126,128,0
4160,129,128,127,128,127,128,125,128,0
4163,127,128,125,127,127,129,129,127,0
4167,122,127,128,126,129,125,129,127,0
4170,127,127,128,129,126,128,128,129,0
4174,126,128,128,128,127,128,129,128,0
4178,129,128,128,127,127,129,127,128,0
4181,123,127,127,126,128,129,127,128,0
4184,122,128,127,127,126,129,128,128,0
4188,127,128,126,128,128,128,127,128,0
4190,130,128,128,128,126,127,127,128,0
4193,126,128,127,128,130,125,127,126,0
4196,130,127,127,129,130,125,127,129,0
4200,129,128,127,127,127,128,128,128,0
4205,130,128,125,128,127,129,127,129,0
4219,135,126,128,129,130,125,127,128,0
4211,122,126,128,126,128,126,131,123,0
4223,127,128,127,128,127,128,127,129,0
4229,127,127,126,126,128,129,126,127,0
4233,123,127,127,126,128,128,126,126,0
4236,130,126,128,129,130,125,127,128,0
4240,128,128,126,128,127,127,127,129,0
4243,129,128,126,127,126,128,125,128,0
4246,128,128,129,126,127,127,127,129,0
4250,126,126,128,129,130,125,127,127,0
4253,130,128,127,128,127,128,126,129,0
4256,129,128,128,128,127,127,126,129,0
4260,128,128,128,126,126,128,127,126,0
4263,131,126,130,128,130,125,129,125,0
4267,124,128,128,126,127,127,127,128,0
4270,131,128,127,128,126,128,126,128,0
4273,129,128,128,127,126,130,126,128,0
4276,128,126,130,129,130,128,129,126,0
4279,129,128,126,128,127,129,127,128,0
4282,130,129,126,127,127,131,127,128,0
4285,129,128,128,126,126,131,127,128,0
4288,123,127,129,129,130,128,129,125,0
4290,124,128,128,128,126,129,128,128,0
4293,129,128,127,128,126,129,127,128,0
4296,128,128,126,126,127,129,126,127,0
4299,122,125,130,129,129,125,129,126,0
4303,130,127,128,127,126,127,127,128,0
4306,130,128,127,128,127,128,126,128,0
4309,129,127,128,126,128,129,127,126,0
4313,122,127,130,128,131,126,129,126,0
4317,125,127,128,127,128,128,127,128,0
4326,127,127,127,128,127,128,128,128,0
4333,129,127,127,127,127,127,126,129,0
4337,123,127,129,129,129,125,128,125,0
4341,127,126,129,127,128,128,127,128,0
4344,129,128,127,127,128,128,129,128,0
4347,126,128,127,128,127,129,128,128,0
4351,122,125,130,129,129,126,130,126,0
4355,128,126,129,127,127,128,129,129,0
4358,128,127,128,128,127,127,126,129,0
4361,128,128,128,127,127,129,126,128,0
4364,122,126,129,127,130,125,130,126,0
4368,128,126,128,128,126,128,128,128,0
4371,128,128,127,128,127,127,128,129,0
4374,129,128,128,126,126,128,126,129,0
4378,125,128,128,125,129,125,129,127,0
4381,128,126,128,127,127,128,128,129,0
4384,126,128,126,128,127,127,128,128,0
4387,129,127,128,128,126,129,127,129,0
4391,126,128,127,127,128,125,127,126,0
4394,129,127,129,129,126,128,127,129,0
4398,128,128,126,128,127,127,127,128,0
4401,130,128,128,127,126,130,125,128,0
4404,123,127,128,126,127,129,131,125,0
4407,130,127,129,129,129,126,129,129,0
4411,128,128,127,127,128,128,128,127,0
4414,127,128,127,127,127,129,127,129,0
4417,123,127,127,128,128,128,126,126,0
4422,130,126,130,128,129,126,127,128,0
4425,126,128,128,127,128,128,127,128,0
4429,128,128,128,127,127,128,128,128,0
4432,122,127,127,126,128,126,130,124,0
4435,129,127,128,129,131,124,127,128,0
4438,128,129,126,128,127,127,128,129,0
4443,126,128,127,128,127,128,127,129,0
4448,125,128,127,127,127,129,129,125,0
4452,128,126,128,129,129,125,126,128,0
4456,129,128,127,128,127,128,127,128,0
4459,126,128,126,127,126,128,127,129,0
4463,126,127,127,128,127,130,127,127,0
4465,126,127,129,128,129,125,128,128,0
4469,128,128,128,126,126,127,127,127,0
4471,128,128,125,127,126,128,127,127,0
4475,127,127,128,126,127,129,126,128,0
4479,124,127,128,128,130,125,129,125,0
4482,123,128,126,128,127,127,127,128,0
4486,130,128,128,128,128,127,127,129,0
4491,127,128,128,127,128,126,127,126,0
4494,124,126,129,129,130,125,129,125,0
4497,129,128,127,126,127,127,126,128,0
4501,129,128,128,128,127,129,128,129,0
4504,128,128,126,126,127,128,128,127,0
4508,125,126,129,128,129,126,128,126,0
4512,128,129,127,126,126,128,128,128,0
4514,130,128,126,128,127,128,126,129,0
4518,129,128,128,126,127,128,127,129,0
4520,123,126,128,129,130,125,129,125,0
4523,126,128,127,128,127,128,129,128,0
4526,129,128,127,128,127,128,127,128,0
4529,129,128,127,127,126,127,124,125,0
4533,122,128,130,128,129,125,129,126,0
4537,131,126,128,128,127,128,127,128,0
4540,130,128,128,128,127,128,128,128,0
4543,129,128,129,128,127,128,126,128,0
4548,125,127,129,129,129,125,130,125,0
4552,130,127,127,126,127,128,128,128,0
4559,131,128,126,129,127,127,128,128,0
4565,130,128,128,127,127,130,127,129,0
4568,121,127,129,129,128,126,128,126,0
4572,132,127,127,126,127,128,128,129,0
4575,126,128,126,127,127,128,127,128,0
4580,127,128,126,127,127,129,126,128,0
4583,124,127,128,129,130,126,128,127,0
4587,128,126,128,127,127,128,127,129,0
4590,129,128,126,127,127,127,126,128,0
4594,127,127,127,128,126,129,126,128,0
4597,125,127,128,127,129,125,127,125,0
4600,131,126,127,127,127,128,128,129,0
4604,128,129,126,128,128,128,127,128,0
4608,131,128,127,126,127,128,128,128,0
4611,123,126,126,126,128,125,128,126,0
4614,128,126,129,129,126,129,128,128,0
4617,125,128,128,128,127,128,126,128,0
4625,128,128,126,127,127,129,127,129,0
4628,122,128,128,126,127,126,127,125,0
4632,129,127,129,129,128,128,127,128,0
4636,129,127,128,127,126,127,127,128,0
4640,128,128,126,128,127,128,127,129,0
4643,126,128,128,127,128,128,129,126,0
4646,128,126,128,129,130,125,128,129,0
4663,129,129,127,126,127,128,127,128,0
4666,128,129,126,126,128,128,126,128,0
4670,125,128,127,128,129,126,130,126,0
4673,128,127,128,128,126,129,126,128,0
4676,129,128,128,128,127,127,128,128,0
4694,130,128,128,127,128,128,128,128,0
4701,128,127,128,127,127,128,129,125,0
4706,128,127,128,128,130,125,128,127,0
4710,129,128,126,128,128,128,129,128,0
4713,128,128,128,128,128,129,128,129,0
4717,124,127,126,125,128,129,128,126,0
4720,127,127,128,128,130,126,129,124,0
4724,128,129,127,128,128,128,130,128,0
4729,129,128,128,128,127,129,128,129,0
4732,127,128,127,127,126,128,127,128,0
4736,125,127,128,128,128,125,128,126,0
4739,128,128,127,128,126,128,128,129,0
4742,128,129,126,127,126,128,128,128,0
4745,128,128,127,127,126,129,127,126,0
4749,119,125,130,129,129,126,128,125,0
4752,131,126,127,128,127,128,128,128,0
4755,129,129,126,128,127,128,128,129,0
4760,127,128,126,126,126,128,127,128,0
4763,123,126,130,127,130,125,129,126,0
4767,131,126,128,128,127,128,127,129,0
4770,130,128,127,127,128,128,128,128,0
4774,127,128,126,126,126,128,127,128,0
4777,122,128,130,129,129,125,129,126,0
4780,128,127,126,128,127,127,127,128,0
4784,128,128,127,127,128,128,128,129,0
4787,128,128,125,127,126,128,126,129,0
4790,122,127,129,128,130,124,133,126,0
4794,130,126,127,126,126,128,127,128,0
4797,130,127,127,128,128,128,127,127,0
4800,130,127,127,127,126,129,127,129,0
4803,125,128,128,129,130,126,127,126,0
4807,131,126,127,128,128,128,127,127,0
4811,130,128,127,128,127,128,129,128,0
4816,128,128,127,127,128,129,129,128,0
4821,125,127,129,129,128,126,130,126,0
4824,128,126,127,126,127,128,126,128,0
4827,130,127,126,127,127,128,128,128,0
4831,127,129,126,127,127,130,127,127,0
4834,124,127,128,127,127,130,128,127,0
4837,122,127,127,127,127,128,128,128,0
4841,130,128,127,129,127,128,128,127,0
4844,132,127,129,128,126,128,127,128,0
4848,125,127,129,129,131,125,129,124,0
4851,131,127,128,129,129,125,128,128,0
4854,130,128,127,127,128,129,128,129,0
4857,129,129,126,126,125,129,128,128,0
4861,127,127,126,128,131,125,131,126,0
4864,129,127,127,128,127,128,128,129,0
4867,127,129,127,126,128,128,128,128,0
4870,127,128,127,126,128,129,127,129,0
4874,122,128,126,125,127,126,128,125,0
4878,128,127,128,128,129,127,128,128,0
4881,130,129,126,128,127,128,128,128,0
4884,129,128,127,127,127,128,127,128,0
4887,126,128,127,126,127,128,129,126,0
4890,130,127,131,129,128,126,127,128,0
4894,130,128,127,129,128,128,127,128,0
4897,131,128,128,126,127,129,124,128,0
4901,124,127,126,128,128,129,126,128,0
4904,125,127,129,129,130,125,127,129,0
4907,127,127,127,128,127,128,127,128,0
4911,130,128,127,127,126,128,126,128,0
4915,128,128,128,127,126,129,127,128,0
4922,127,126,129,130,131,125,128,127,0
4932,129,128,126,128,127,128,126,129,0
4936,127,128,127,128,128,129,127,129,0
4940,125,128,126,126,126,130,128,126,0
4943,130,127,129,128,129,125,128,127,0
4947,128,128,128,128,126,127,128,128,0
4951,128,128,128,128,126,128,128,128,0
4954,126,129,126,127,126,128,127,128,0
4957,123,127,129,128,129,125,129,125,0
4961,123,128,128,128,127,127,126,128,0
4964,128,128,127,128,127,128,128,128,0
4968,128,128,129,128,127,128,130,126,0
4970,125,127,130,129,129,125,128,125,0
4976,128,128,129,128,128,127,128,129,0
4979,128,127,128,129,128,128,128,128,0
4982,125,127,128,126,127,129,127,126,0
4985,122,127,128,128,129,126,128,124,0
4988,126,129,126,128,126,127,127,128,0
4992,129,128,127,128,127,129,126,128,0
4995,126,127,128,126,127,129,125,128,0
4999,121,126,130,129,130,125,131,127,0
5003,128,127,127,128,126,128,127,129,0
5007,127,129,127,128,127,128,128,128,0
5013,128,128,128,127,128,127,127,129,0
5016,122,126,128,129,130,125,128,126,0
5022,129,127,129,128,128,128,128,128,0
5025,131,128,128,128,127,128,127,127,0
5028,128,128,127,127,127,129,128,128,0
5032,125,127,129,129,129,126,129,126,0
5037,131,127,127,126,128,128,129,128,0
5044,127,128,128,128,128,128,127,128,0
5050,126,127,127,127,126,129,128,128,0
5055,124,126,129,129,129,126,129,127,0
5059,128,127,128,128,126,129,127,128,0
5062,129,128,126,126,127,127,127,128,0
5065,130,127,128,128,127,128,125,128,0
5069,123,127,127,125,129,126,127,126,0
5072,131,127,128,129,126,128,127,128,0
5075,127,128,127,127,128,128,127,128,0
5079,130,128,127,127,127,128,127,128,0
5082,122,127,127,126,127,129,129,125,0
5085,130,126,128,129,127,128,128,128,0
5089,128,127,127,129,127,128,127,128,0
5092,128,128,126,126,127,128,127,129,0
5095,122,128,127,127,126,129,126,125,0
5098,131,127,128,129,129,127,127,128,0
5101,131,128,126,128,128,128,126,128,0
5104,127,128,126,126,127,128,127,128,0
5107,125,128,126,127,128,126,127,125,0
5111,130,127,129,129,130,125,127,129,0
5114,129,128,127,128,126,128,127,129,0
5118,129,128,126,127,126,128,126,129,0
5120,127,128,127,127,127,129,129,125,0
5123,131,126,129,128,127,127,125,129,0
5126,129,129,126,128,127,127,127,128,0
5131,130,127,128,128,127,129,126,128,0
5134,123,128,127,127,127,126,128,125,0
5138,134,126,128,129,129,128,128,129,0
5143,128,127,127,126,127,128,127,128,0
5146,130,128,126,128,128,128,127,129,0
5151,125,127,126,127,126,128,128,127,0
5157,129,126,129,129,129,125,127,128,0
5161,129,128,128,128,127,127,126,128,0
5165,131,128,127,127,127,128,125,128,0
5168,126,128,128,126,127,127,126,127,0
5171,129,127,128,128,128,125,127,127,0
5175,127,128,127,128,128,128,129,128,0
5178,129,129,127,126,127,128,128,129,0
5181,127,128,127,126,127,129,126,127,0
5185,125,126,131,129,130,127,130,129,0
5188,128,129,127,128,128,128,128,128,0
5192,131,129,126,127,126,128,127,128,0
5195,129,128,128,127,127,128,127,125,0
5198,125,126,129,129,129,126,129,126,0
5200,128,127,128,127,126,128,128,128,0
5206,130,127,128,128,126,128,125,128,0
5210,129,128,128,126,126,127,127,128,0
5215,124,128,128,127,130,125,129,126,0
5218,130,126,128,127,127,128,127,129,0
5221,131,129,128,127,128,128,127,128,0
5224,127,128,126,127,125,129,127,129,0
5230,126,127,129,129,129,126,129,126,0
5235,124,128,127,127,127,128,127,128,0
5240,127,127,128,128,127,128,126,128,0
5243,128,127,127,126,126,129,127,128,0
5247,125,127,128,127,127,128,127,129,0
5250,124,128,126,128,126,128,129,128,0
5253,128,127,127,128,126,127,126,128,0
5257,129,127,128,128,128,128,128,128,0
5260,126,126,131,128,132,125,131,125,0
5263,129,126,129,129,127,128,128,128,0
5268,129,128,127,127,127,128,128,128,0
5275,128,128,128,128,127,128,126,128,0
5282,126,128,129,128,130,125,133,125,0
5286,134,127,128,127,127,128,127,128,0
5291,128,127,127,126,127,127,128,129,0
5294,127,128,127,126,128,128,127,127,0
5298,125,127,128,128,129,126,130,125,0
5301,130,127,128,126,126,128,127,128,0
5305,126,129,127,128,128,127,127,128,0
5308,130,128,128,127,126,129,126,128,0
5311,126,128,128,125,129,125,131,125,0
5314,132,127,128,128,127,129,127,128,0
5318,129,128,127,127,127,128,126,129,0
5321,128,128,126,126,127,128,128,129,0
5324,124,128,127,126,130,126,128,125,0
5328,130,126,130,129,126,128,128,128,0
5331,127,128,127,127,128,128,128,128,0
5335,129,128,126,127,127,128,128,128,0
5338,123,126,127,126,127,128,128,125,0
5341,130,127,131,129,128,126,125,128,0
5344,130,128,127,128,128,128,127,128,0
5348,128,129,126,127,127,128,129,129,0
5350,121,127,127,127,127,128,128,125,0
5353,130,126,128,128,130,125,127,129,0
5357,128,128,126,128,127,128,127,129,0
5360,129,128,127,127,128,129,125,129,0
5364,124,128,127,128,126,129,129,125,0
5368,130,127,128,128,129,125,128,128,0
5372,129,128,128,127,126,128,127,128,0
5374,128,129,126,126,128,129,127,129,0
5383,129,127,129,129,128,125,128,128,0
5378,126,128,127,127,126,128,129,126,0
5387,127,128,126,127,128,128,128,129,0
5391,127,129,127,128,127,128,128,128,0
5394,127,129,126,126,126,128,127,126,0
5397,125,128,128,129,130,126,129,125,0
5400,124,128,127,127,128,128,127,128,0
5403,130,129,126,127,127,128,128,129,0
5408,126,128,126,126,126,129,128,128,0
5411,123,127,131,128,129,126,128,124,0
5414,127,128,128,127,127,128,127,128,0
5417,130,128,127,128,127,128,128,128,0
5421,130,128,128,127,126,127,127,128,0
5425,123,128,129,129,129,125,129,125,0
5429,131,127,126,128,127,128,128,128,0
5432,130,127,128,127,128,129,127,128,0
5435,129,129,127,126,126,127,127,128,0
5441,122,128,129,128,130,125,129,125,0
5443,128,127,128,126,128,127,126,128,0
5446,130,127,126,128,129,128,127,129,0
5449,128,128,128,127,127,129,128,126,0
5453,125,127,130,129,129,126,129,126,0
5458,131,127,127,128,126,128,128,129,0
5461,127,128,125,128,128,128,126,128,0
5464,128,128,126,126,126,129,125,127,0
5467,123,127,129,129,130,125,128,126,0
5471,130,126,128,127,126,128,129,128,0
5473,130,128,127,128,127,127,127,128,0
5477,128,128,126,127,126,129,126,128,0
5480,124,128,128,128,129,126,128,126,0
5483,130,126,129,128,128,129,126,128,0
5487,128,128,127,127,128,128,126,128,0
5493,127,128,127,126,127,129,127,129,0
5497,125,127,127,126,128,126,128,126,0
5501,127,126,128,129,128,129,127,129,0
5504,128,128,127,128,127,128,128,128,0
5508,129,128,127,128,127,128,126,128,0
5511,123,127,128,126,130,125,130,125,0
5514,134,127,128,128,127,129,126,129,0
5517,127,128,127,127,128,128,128,129,0
5520,128,128,126,126,125,128,127,129,0
5522,126,128,128,127,127,128,126,128,0
5525,122,128,128,127,128,127,127,128,0
5528,128,128,128,128,127,128,126,127,0
5535,129,129,128,128,127,129,126,129,0
5538,124,128,129,128,129,125,132,124,0
5542,136,126,128,129,131,125,128,129,0
5546,129,128,126,127,128,128,128,127,0
5550,130,128,125,127,126,128,127,128,0
5553,125,128,126,125,128,126,130,126,0
5556,129,126,128,130,131,125,127,128,0
5559,128,128,127,127,127,128,128,128,0
5563,130,128,126,127,126,129,126,128,0
5567,128,128,128,127,126,127,128,124,0
5570,131,126,128,127,129,125,126,129,0
5573,129,128,126,128,127,128,126,129,0
5577,130,128,126,127,127,128,127,128,0
5581,126,127,127,126,126,129,127,128,0
5584,123,127,128,128,129,125,128,128,0
5587,128,128,128,128,127,129,126,128,0
5591,130,127,128,128,128,128,125,128,0
5594,126,127,128,126,127,128,126,126,0
5597,131,127,128,129,129,125,128,125,0
5601,124,127,127,127,127,127,126,128,0
5607,127,127,128,129,128,128,126,129,0
5610,124,128,127,125,127,129,128,126,0
5613,129,126,128,127,130,126,129,125,0
5616,126,128,127,126,127,127,127,128,0
5621,127,128,126,128,127,128,129,128,0
5623,125,128,126,126,125,127,127,128,0
5627,122,127,129,128,130,126,129,125,0
5630,125,128,126,127,127,128,128,128,0
5633,128,128,128,128,127,129,126,128,0
5636,130,127,128,128,127,128,126,128,0
5639,122,127,128,129,129,125,128,126,0
5642,130,127,126,128,126,127,128,129,0
5646,129,129,127,127,126,128,128,129,0
5650,128,128,127,127,127,129,127,129,0
5654,124,127,128,128,130,126,129,126,0
5657,129,127,129,127,126,128,128,128,0
5662,128,128,127,127,127,128,126,128,0
5664,129,128,128,126,127,127,126,127,0
5667,123,127,128,129,130,125,129,126,0
5671,130,127,128,126,127,128,127,128,0
5673,131,129,127,127,127,127,129,128,0
5677,129,128,128,126,128,129,126,127,0
5680,123,127,128,128,130,126,128,126,0
5683,130,127,128,127,128,128,127,128,0
5685,128,128,128,127,127,127,127,128,0
5689,130,128,128,127,126,128,126,128,0
5692,126,128,129,129,131,126,128,125,0
5695,130,127,128,127,126,129,128,128,0
5698,128,128,128,128,127,128,128,128,0
5701,126,128,128,127,126,129,126,128,0
5705,122,128,128,126,126,129,126,128,0
5711,124,128,127,127,127,128,129,128,0
5715,128,128,126,128,129,127,128,129,0
5718,131,128,127,127,126,128,127,128,0
5722,124,129,127,127,129,124,133,125,0
5725,135,127,129,129,127,128,127,128,0
5728,128,129,126,128,128,128,128,128,0
5731,126,128,128,127,126,129,126,128,0
5734,128,127,127,127,128,125,128,126,0
5738,129,127,128,129,129,126,128,129,0
5741,128,128,128,128,128,128,127,127,0
5743,132,128,129,128,126,128,129,129,0
5746,123,126,126,127,127,126,129,126,0
5749,129,127,128,128,130,125,128,129,0
5752,129,128,126,128,128,127,126,128,0
5756,128,128,126,128,127,128,128,128,0
5760,126,127,127,127,127,127,129,125,0
5762,135,127,127,129,130,125,126,128,0
5765,129,128,127,126,127,128,127,128,0
5768,127,128,127,127,126,128,127,129,0
5771,127,128,126,125,127,129,127,128,0
5776,126,127,128,128,129,125,127,128,0
5779,127,128,126,126,126,128,126,128,0
5782,131,128,128,126,128,128,125,129,0
5785,124,127,127,128,127,129,129,126,0
5788,129,127,131,128,130,126,128,126,0
5791,129,128,127,126,128,128,127,128,0
5794,131,127,128,126,127,128,126,128,0
5797,127,128,128,127,127,130,127,126,0
5800,125,126,128,129,128,126,127,127,0
5803,129,127,127,128,127,127,127,127,0
5807,130,128,126,127,128,128,128,129,0
5810,124,128,126,127,127,128,127,126,0
5815,130,127,129,129,130,125,129,125,0
5821,126,129,126,127,127,128,127,128,0
5825,128,128,128,128,127,127,126,129,0
5828,127,128,127,126,127,128,129,128,0
5832,124,127,128,129,131,125,128,125,0
5838,127,128,126,127,127,128,129,128,0
5842,129,128,127,128,127,128,126,129,0
5845,130,128,128,126,125,129,126,128,0
5848,126,126,130,129,129,126,129,126,0
5851,129,126,128,127,126,128,127,128,0
5854,129,129,127,127,129,127,127,128,0
5857,127,128,127,125,128,129,127,129,0
5860,126,127,132,129,130,124,127,126,0
5863,127,127,127,126,128,129,129,128,0
5867,127,128,126,127,128,129,127,128,0
5870,130,128,128,127,126,129,126,127,0
5873,125,128,128,126,127,129,127,129,0
5876,127,128,129,127,127,127,128,128,0
5879,130,128,126,128,128,128,128,128,0
5883,130,128,126,128,127,128,127,128,0
5885,125,126,129,129,130,126,129,126,0
5888,129,128,128,129,127,128,129,129,0
5892,129,129,126,126,128,127,128,128,0
5895,127,128,126,126,126,128,128,129,0
5898,124,127,129,128,130,126,130,126,0
5902,129,127,128,128,127,128,128,129,0
5904,129,128,126,128,127,127,127,128,0
5907,126,127,128,128,127,129,127,128,0
5911,123,127,129,129,129,127,128,126,0
5914,130,127,129,128,126,128,128,128,0
5919,128,128,126,126,128,128,127,127,0
5925,128,128,125,126,128,129,126,129,0
5928,126,128,126,127,127,126,129,126,0
5932,127,127,127,128,128,128,126,128,0
5935,127,128,126,128,129,127,127,128,0
5938,126,128,129,128,127,129,126,128,0
5941,124,128,130,128,126,126,130,126,0
5944,128,126,128,128,129,126,128,129,0
5946,127,128,127,128,127,128,127,127,0
5950,131,128,126,126,128,129,128,128,0
5952,125,129,126,127,126,129,126,126,0
5955,128,127,128,128,130,125,127,128,0
5959,127,128,127,127,128,128,127,128,0
5961,130,128,127,128,127,128,126,129,0
5973,126,128,127,125,127,129,127,126,0
5979,130,127,128,129,129,125,128,127,0
5982,128,128,126,127,127,128,126,128,0
5986,127,127,128,128,128,129,127,128,0
5989,127,128,127,127,125,129,127,126,0
5992,129,127,130,129,130,125,128,127,0
5996,129,128,127,127,127,128,128,128,0
5999,128,128,127,127,126,128,128,129,0
6003,128,127,126,126,126,128,127,127,0
6006,125,126,128,129,130,125,128,125,0
6010,124,127,128,128,127,127,128,128,0
6013,131,130,127,127,127,129,126,128,0
6016,127,128,128,126,127,129,127,126,0
6021,129,127,128,128,130,125,128,125,0
6024,124,128,127,127,127,128,127,129,0
6029,127,128,127,128,127,128,128,129,0
6033,127,127,127,128,127,127,127,128,0
6037,125,126,128,128,129,126,129,125,0
6045,130,128,127,128,127,128,129,128,0
6049,128,128,126,127,126,128,127,128,0
6052,128,127,128,127,127,129,128,127,0
6055,123,127,128,128,131,126,128,126,0
6059,130,127,126,128,127,128,128,128,0
6062,129,128,128,128,128,128,127,128,0
6065,127,128,129,127,127,129,127,128,0
6069,125,127,128,127,130,126,129,126,0
6072,130,127,127,128,128,128,128,128,0
6075,131,129,127,128,127,128,128,129,0
6078,127,128,127,127,126,129,126,129,0
6086,123,125,130,127,130,125,131,126,0
6091,127,126,128,126,128,128,127,128,0
6095,127,127,128,127,128,128,127,128,0
6098,127,128,127,125,127,129,128,129,0
6101,123,127,131,128,128,126,129,126,0
6104,132,126,127,126,126,128,128,129,0
6108,128,127,128,127,127,128,127,128,0
6111,128,129,126,127,127,129,126,129,0
6122,124,128,130,129,132,126,128,125,0
6125,132,127,127,127,127,128,129,129,0
6129,127,129,127,127,128,127,127,128,0
6136,130,128,128,127,126,129,125,127,0
6143,125,127,128,126,129,126,130,126,0
6148,128,127,127,128,127,128,126,128,0
6151,127,128,127,127,128,128,128,128,0
6155,126,128,128,127,126,129,126,128,0
6158,125,128,128,127,127,125,128,126,0
6163,131,127,131,129,127,128,128,128,0
6170,128,128,128,129,127,127,128,128,0
6175,131,128,129,128,127,128,126,127,0
6178,123,125,128,129,128,126,130,125,0
6182,130,127,127,130,129,126,129,129,0
6185,131,128,125,128,127,129,127,129,0
6188,129,128,128,128,127,129,126,129,0
6192,126,128,127,127,126,129,127,126,0
6195,128,127,127,128,128,128,127,129,0
6198,128,129,127,127,128,128,128,128,0
6237,127,128,127,129,128,128,128,129,0
6243,122,128,126,127,125,128,130,125,0
6247,129,127,129,130,128,126,128,129,0
6250,127,128,127,127,125,128,128,127,0
6254,129,128,126,127,127,128,127,129,0
6310,125,128,127,127,126,129,127,127,0
6320,125,126,130,128,130,125,128,126,0
6326,129,128,127,127,128,128,128,129,0
6331,128,129,127,127,127,128,126,128,0
6335,127,128,128,127,128,126,129,126,0
6375,127,126,131,128,130,125,129,129,0
6385,128,128,126,127,128,128,127,128,0
6391,131,128,127,127,127,128,127,128,0
6397,127,128,126,126,127,129,126,128,0
6402,123,127,128,128,129,126,127,129,0
6442,130,128,128,128,128,128,127,128,0
6449,130,128,127,127,127,128,128,129,0
6459,127,128,126,127,126,129,126,127,0
6509,127,126,129,129,129,125,129,125,0
6518,127,128,127,127,127,127,126,128,0
6525,129,128,128,128,126,129,125,128,0
6529,125,127,128,128,128,128,127,128,0
6533,127,127,129,130,130,125,129,126,0
6537,127,128,127,127,126,127,127,129,0
6540,129,128,126,128,127,129,128,128,0
6544,127,128,126,127,126,128,127,126,0
6547,125,124,129,129,129,126,128,126,0
6550,129,127,127,126,127,128,126,128,0
6553,128,128,127,127,126,128,129,129,0
6557,129,127,129,127,128,127,126,127,0
6560,123,127,128,129,130,126,130,126,0
6563,129,126,129,128,126,127,128,128,0
6567,129,129,127,128,127,128,129,128,0
6570,127,128,126,127,126,129,126,129,0
6574,122,127,128,128,127,127,129,125,0
6577,129,127,129,127,127,128,127,128,0
6580,129,129,126,128,128,127,127,128,0
6583,126,128,127,126,127,129,128,126,0
6587,125,127,128,127,129,126,130,127,0
6590,129,127,127,126,127,128,126,128,0
6592,129,128,127,128,127,128,127,128,0
6595,129,127,128,126,127,129,126,129,0
6598,122,127,128,129,129,127,127,126,0
6600,129,127,127,127,126,128,129,129,0
6604,127,128,127,128,128,128,128,128,0
6608,127,128,127,127,127,129,126,129,0
6614,126,125,128,127,126,130,128,128,0
6618,121,128,127,126,128,128,128,129,0
6621,128,129,127,128,128,127,128,129,0
6624,129,128,126,127,126,127,126,128,0
6627,127,128,129,129,131,127,129,126,0
6630,130,126,129,129,129,125,129,129,0
6633,130,128,126,128,127,128,128,128,0
6644,131,128,127,127,126,129,126,128,0
6648,127,128,127,126,129,126,128,126,0
6652,130,126,130,128,129,126,129,128,0
6656,129,128,126,128,127,128,126,128,0
6660,129,127,128,126,127,128,127,129,0
6663,125,128,128,126,127,129,128,125,0
6668,129,127,128,128,129,125,127,128,0
6671,129,128,127,127,127,128,128,128,0
6675,131,128,127,128,126,128,126,128,0
6678,127,127,130,127,126,126,128,124,0
6681,130,125,131,128,128,126,126,129,0
6685,129,129,127,127,127,128,129,128,0
6690,127,128,128,128,127,128,126,128,0
6692,127,127,129,127,125,129,127,128,0
6697,126,127,130,130,130,125,127,128,0
6710,129,128,128,128,127,128,127,128,0
6714,131,128,127,127,127,129,127,129,0
6718,124,128,127,128,127,128,127,126,0
6722,121,127,127,127,127,129,127,128,0
6778,128,129,126,128,127,129,127,128,0
6790,129,127,127,127,127,129,127,128,0
6807,130,124,128,129,130,126,128,127,0
6817,128,127,128,129,130,126,128,124,0
6822,129,128,126,128,127,128,127,128,0
6827,127,128,127,127,128,128,126,129,0
6831,125,128,126,128,128,128,126,127,0
6834,125,126,128,129,130,125,130,126,0
6838,127,128,129,128,127,128,127,128,0
6841,126,128,127,126,128,128,126,128,0
6844,126,127,126,127,125,129,126,126,0
6848,124,128,129,130,129,126,129,125,0
6851,131,125,128,127,126,128,128,128,0
6854,131,128,126,128,128,128,128,128,0
6858,126,128,126,127,127,129,127,128,0
6861,125,127,129,127,129,125,129,126,0
6865,128,127,127,128,126,127,127,128,0
6869,129,128,126,128,128,129,127,128,0
6872,129,127,129,127,126,129,126,127,0
6874,123,128,128,127,130,125,130,126,0
6877,128,126,127,128,127,128,129,128,0
6880,128,127,127,128,128,129,129,129,0
6883,128,128,126,126,126,128,128,128,0
6886,124,127,131,127,129,126,130,127,0
6889,130,127,127,126,127,129,128,128,0
6893,128,128,126,128,127,127,129,128,0
6896,129,128,128,127,126,129,127,128,0
6900,125,127,130,129,129,126,129,126,0
6903,131,127,127,126,128,128,128,128,0
6907,127,128,126,126,128,128,128,128,0
6911,130,128,128,128,128,128,126,127,0
6918,123,125,128,128,129,126,129,126,0
6925,126,127,127,127,125,128,129,128,0
6928,127,128,128,127,128,128,128,128,0
6931,127,127,127,127,127,129,129,129,0
6935,122,127,129,129,129,127,128,126,0
6938,129,127,129,128,128,128,128,128,0
6941,129,127,127,127,126,128,128,128,0
6945,129,127,128,126,127,128,127,129,0
6948,124,128,127,128,128,126,126,126,0
6951,130,127,129,129,126,128,126,129,0
6954,126,129,127,128,128,128,125,128,0
6956,127,128,128,127,128,130,123,129,0
6959,122,128,127,126,127,127,124,128,0
6962,123,127,128,127,126,128,128,128,0
6965,129,128,126,128,128,128,127,128,0
6969,129,129,126,128,127,128,125,128,0
6980,125,127,129,129,131,126,131,124,0
6984,136,126,129,129,128,125,126,128,0
6987,128,128,127,127,127,127,127,129,0
7051,130,128,128,127,127,128,125,129,0
7063,127,128,128,125,126,127,128,125,0
7070,131,127,130,128,129,125,125,128,0
7076,127,129,128,126,127,127,126,128,0
7082,127,127,126,128,127,128,125,128,0
7086,127,127,129,126,127,128,128,125,0
7093,131,127,131,129,129,125,126,128,0
7100,128,128,127,127,127,128,127,128,0
7105,129,128,126,128,128,128,128,128,0
7109,126,127,128,125,127,128,126,127,0
7112,123,128,129,129,129,126,129,127,0
7117,129,127,127,128,128,128,128,128,0
7120,131,128,126,128,127,128,126,128,0
7124,127,128,126,128,129,129,128,126,0
7127,130,127,129,128,129,126,128,125,0
7130,123,128,127,127,127,128,128,128,0
7134,130,128,127,127,127,128,127,128,0
7137,128,128,129,128,126,127,127,129,0
7140,122,127,131,128,130,126,128,126,0
7143,126,128,127,127,127,128,127,128,0
7147,126,128,127,127,126,128,127,128,0
7150,127,129,127,127,125,128,128,129,0
7153,123,128,129,128,129,126,129,126,0
7156,129,125,128,126,127,128,128,128,0
7160,129,129,126,128,127,128,127,128,0
7163,129,128,128,127,127,126,126,128,0
7167,123,126,129,128,129,126,131,127,0
7170,130,127,127,127,126,128,128,128,0
7174,129,128,127,129,128,129,126,128,0
7177,131,127,127,127,125,128,127,128,0
7181,125,128,127,128,129,125,130,126,0
7184,129,127,129,126,127,128,128,128,0
7187,127,128,126,128,127,128,128,128,0
7191,130,128,126,125,126,129,127,128,0
7194,125,128,127,129,129,125,130,126,0
7198,129,126,128,127,126,128,128,128,0
7202,130,129,127,127,128,128,127,128,0
7207,129,128,128,127,126,128,126,128,0
7211,125,128,129,129,130,126,133,127,0
7214,129,127,128,128,125,129,128,129,0
7217,128,128,128,126,126,128,126,128,0
7221,130,127,128,129,127,129,126,128,0
7224,124,127,128,126,130,126,129,127,0
7227,129,127,128,129,126,129,128,128,0
7230,127,129,126,128,127,128,127,128,0
7234,129,128,126,127,126,129,126,128,0
7236,129,128,127,126,129,126,129,125,0
7241,128,127,129,130,128,128,126,128,0
7244,128,128,126,127,127,127,125,128,0
7248,130,128,128,127,127,129,125,128,0
7251,128,127,129,128,129,127,128,125,0
7253,129,127,127,129,128,128,127,129,0
7256,131,128,128,128,128,128,128,128,0
7259,131,128,128,127,126,129,125,128,0
7261,128,128,128,128,128,126,130,126,0
7264,127,126,128,128,130,127,130,129,0
7267,128,128,127,128,128,128,127,128,0
7270,127,127,127,127,128,129,126,129,0
7273,124,127,126,126,128,126,129,126,0
7277,131,126,129,129,129,125,128,128,0
7280,128,129,127,128,128,128,128,129,0
7284,126,127,128,128,127,128,125,128,0
7287,127,127,128,127,126,128,127,126,0
7292,130,127,130,128,128,126,128,129,0
7295,127,128,126,128,128,128,128,128,0
7298,128,128,126,126,127,128,127,128,0
7303,127,128,127,126,126,128,128,125,0
7308,130,127,130,130,129,125,127,127,0
7311,129,128,127,127,127,128,128,129,0
7314,129,128,128,127,126,128,126,128,0
7317,127,127,128,126,126,129,125,128,0
7320,124,127,129,128,128,126,128,126,0
7323,128,128,128,127,126,128,126,128,0
7326,130,127,126,127,127,128,126,128,0
7331,128,128,128,126,128,128,127,128,0
7334,125,127,130,129,130,126,128,124,0
7337,126,129,127,127,128,128,127,128,0
7341,130,127,127,128,127,128,125,128,0
7344,128,128,129,126,127,128,126,128,0
7347,123,125,129,129,128,126,128,126,0
7352,128,128,125,127,129,128,127,128,0
7355,129,128,127,128,127,128,126,128,0
7358,129,128,128,127,127,128,127,129,0
7361,123,127,128,130,132,125,133,125,0
7363,127,128,127,126,127,128,128,128,0
7367,131,128,126,128,127,128,126,128,0
7370,128,128,127,126,128,129,126,127,0
7373,122,126,131,128,129,126,130,126,0
7377,130,127,127,126,128,128,126,128,0
7380,130,128,128,128,127,129,127,128,0
7383,127,128,125,126,126,128,126,128,0
7386,125,128,130,125,126,127,127,128,0
7390,126,128,126,127,127,128,127,128,0
7393,129,128,126,128,127,126,128,128,0
7400,129,128,128,128,126,127,127,128,0
7405,123,125,129,129,130,124,129,126,0
7411,129,127,128,127,127,128,126,128,0
7415,129,128,127,127,127,126,127,128,0
7419,127,127,127,128,127,128,128,128,0
7422,124,127,128,128,130,126,129,127,0
7425,128,126,129,130,130,127,128,128,0
7428,129,128,127,127,128,127,128,128,0
7432,129,128,126,128,127,129,127,129,0
7435,123,127,128,127,127,126,130,125,0
7439,130,127,128,128,128,128,128,128,0
7442,129,128,128,127,128,128,127,128,0
7445,127,128,128,127,126,129,126,128,0
7449,121,127,126,128,128,127,129,127,0
7453,130,127,130,129,127,128,129,129,0
7455,130,128,128,127,127,128,128,128,0
7458,130,128,128,128,127,129,127,128,0
7461,124,127,128,126,128,129,128,126,0
7464,128,126,128,128,130,125,127,129,0
7467,130,128,126,128,128,128,127,128,0
7471,130,128,128,128,126,130,125,127,0
7477,130,128,127,127,128,126,133,125,0
7481,135,127,129,129,129,126,128,129,0
7484,130,128,128,128,126,128,127,128,0
7487,129,128,126,127,126,129,126,129,0
7490,125,127,126,128,126,129,127,126,0
7493,130,127,129,129,129,125,127,129,0
7497,129,129,126,128,127,127,126,128,0
7500,131,128,127,127,128,128,126,129,0
7503,125,128,126,126,125,128,127,126,0
7507,128,126,129,129,130,126,126,129,0
7511,131,128,128,127,127,128,127,127,0
7516,129,128,127,128,126,129,127,129,0
7519,127,128,127,127,127,129,127,126,0
7522,122,127,130,129,129,126,128,124,0
7525,126,128,127,128,128,127,127,129,0
7528,127,129,126,127,127,128,128,129,0
7530,128,127,128,126,127,127,127,126,0
7533,121,127,128,129,129,126,130,125,0
7536,123,128,128,127,127,127,129,128,0
7539,131,128,126,127,126,127,127,128,0
7542,125,128,126,127,127,128,128,128,0
7545,123,127,129,128,128,125,130,126,0
7548,129,128,127,126,127,128,128,128,0
7551,131,128,127,127,127,129,126,128,0
7554,129,128,128,125,126,128,126,127,0
7557,126,126,128,128,130,125,130,125,0
7562,130,126,128,127,128,128,128,128,0
7565,130,128,127,127,127,128,128,128,0
7570,128,128,128,127,126,128,127,126,0
7573,122,127,128,128,129,126,130,126,0
7576,123,128,126,128,126,128,128,127,0
7579,130,128,127,128,127,128,128,127,0
7585,129,128,127,127,126,129,126,127,0
7590,122,128,128,128,128,125,128,126,0
7593,131,127,129,127,128,128,128,128,0
7597,129,128,126,129,128,128,128,128,0
7600,130,128,127,127,126,127,127,126,0
7604,125,126,128,129,130,126,128,126,0
7607,130,126,128,127,127,128,127,128,0
7612,127,128,127,128,127,128,126,128,0
7616,129,128,126,126,127,129,127,128,0
7627,126,127,127,130,129,126,127,126,0
7632,132,128,127,126,127,127,128,129,0
7635,127,128,126,129,127,128,127,129,0
7639,127,128,127,126,127,129,127,128,0
7642,124,127,127,128,130,126,129,126,0
7646,127,127,127,127,126,127,128,128,0
7649,128,128,127,127,127,128,127,128,0
7653,125,128,127,127,126,129,126,128,0
7656,127,127,127,127,128,125,131,125,0
7659,130,128,129,129,128,127,126,128,0
7664,125,128,126,128,127,127,126,129,0
7668,127,128,127,128,127,128,126,128,0
7683,126,127,128,127,127,127,130,127,0
7694,128,127,129,129,129,127,127,128,0
7714,126,128,127,128,128,128,127,128,0
7724,127,129,126,127,126,128,126,128,0
7728,122,128,128,127,128,126,130,126,0
7732,131,127,129,129,128,127,127,128,0
7749,129,129,126,127,127,127,127,128,0
7766,131,128,127,127,126,129,126,128,0
7773,126,127,128,127,127,129,129,125,0
7778,128,126,128,129,128,126,127,129,0
7783,127,128,128,128,127,127,127,127,0
7788,128,128,126,127,127,128,126,129,0
7791,126,128,127,127,126,128,128,125,0
7795,130,127,128,129,130,126,127,128,0
7798,129,128,128,127,127,127,127,128,0
7801,130,128,127,128,128,128,128,128,0
7805,127,128,128,127,127,129,127,126,0
7810,130,126,130,129,129,125,127,129,0
7814,127,129,126,128,128,128,129,129,0
7818,129,129,127,127,128,128,127,129,0
7822,126,128,127,127,127,128,127,129,0
7826,119,127,127,127,128,127,127,128,0
7829,127,127,128,128,128,128,128,128,0
7832,128,127,126,129,129,127,128,129,0
7835,123,127,127,127,128,128,128,128,0
7839,128,126,129,130,131,124,134,126,0
7842,125,129,130,127,128,128,128,128,0
7845,129,128,127,125,127,128,128,129,0
7851,125,128,126,127,128,127,127,127,0
7854,131,127,128,129,130,125,129,126,0
7858,125,128,127,126,128,128,127,129,0
7861,127,130,127,128,127,128,126,128,0
7865,129,128,128,127,126,129,125,127,0
7868,127,127,129,129,130,126,128,126,0
7873,123,128,128,128,127,129,129,128,0
7876,128,128,128,128,126,128,128,129,0
7881,128,129,126,126,127,128,130,128,0
7884,120,128,127,127,128,126,128,125,0
7887,130,127,128,128,128,128,129,128,0
7891,129,128,127,128,127,128,127,128,0
7894,129,128,126,127,126,128,126,126,0
7899,123,127,130,129,130,124,133,124,0
7902,129,126,127,127,126,128,128,128,0
7905,129,128,128,127,127,128,126,128,0
7909,128,128,126,128,128,128,127,129,0
7912,122,127,129,129,130,126,128,126,0
7918,130,126,126,126,127,128,126,128,0
7923,127,129,127,128,128,128,128,128,0
7929,128,128,127,127,126,128,127,128,0
7933,124,128,127,128,130,127,130,126,0
7936,131,126,129,129,127,129,129,129,0
7939,131,128,127,127,128,128,128,129,0
7942,130,128,128,128,127,129,126,128,0
7946,122,127,128,127,127,126,128,125,0
7949,131,127,128,128,127,128,127,128,0
7952,128,128,128,128,127,127,126,127,0
7955,128,128,126,127,127,128,126,127,0
7958,126,128,128,128,130,126,128,126,0
7962,128,127,129,129,126,128,128,128,0
7965,130,129,128,127,126,127,127,128,0
7969,129,128,128,126,127,129,127,127,0
7972,124,128,127,127,126,128,129,125,0
7975,131,127,128,129,129,126,128,128,0
7979,129,128,126,127,127,128,128,128,0
7982,128,128,127,127,126,128,127,129,0
7984,126,128,130,126,127,126,129,125,0
7987,132,127,129,129,129,126,128,128,0
7991,126,127,126,128,127,127,128,128,0
7995,129,128,126,127,126,128,127,128,0
8007,126,127,128,125,127,127,126,128,0
8011,123,127,127,127,127,129,127,128,0
8014,127,128,127,129,128,128,127,128,0
8017,130,127,126,127,127,128,127,127,0
8021,127,128,127,127,127,127,130,125,0
8025,135,127,129,129,129,125,128,127,0
8029,129,128,127,127,128,128,128,128,0
8034,127,127,127,128,126,128,126,127,0
8039,125,127,128,126,127,130,127,126,0
8043,130,127,127,129,129,125,128,129,0
8049,127,128,126,127,128,128,128,129,0
8052,131,128,125,128,127,128,127,129,0
8056,127,128,128,126,127,129,126,129,0
8059,126,127,128,129,130,125,129,126,0
8062,125,128,126,128,126,127,128,127,0
8065,130,128,127,127,128,127,129,129,0
8069,124,128,126,126,127,129,125,128,0
8072,125,126,128,129,130,125,129,126,0
8075,122,128,128,126,127,128,127,128,0
8078,131,128,127,128,126,129,126,128,0
8082,129,127,128,127,126,129,128,128,0
8085,122,127,130,128,130,126,128,126,0
8089,130,126,128,127,126,127,128,128,0
8094,128,127,127,128,127,128,127,128,0
8097,126,128,126,128,127,128,126,128,0
8100,125,127,128,129,129,126,128,125,0
8103,125,128,128,128,128,128,128,129,0
8107,127,128,128,128,128,128,128,128,0
8111,127,128,125,126,126,128,127,128,0
8116,124,127,129,129,129,126,128,126,0
8119,131,126,126,128,128,128,127,129,0
8123,131,127,127,128,127,128,126,128,0
8126,131,128,127,127,126,129,125,125,0
8129,124,128,129,129,130,125,130,127,0
8132,129,126,128,128,126,128,128,128,0
8136,128,128,126,128,127,128,127,128,0
8143,125,128,129,129,127,125,130,127,0
8139,127,128,125,127,125,129,127,128,0
8148,129,126,129,128,125,128,128,128,0
8153,129,128,126,128,126,128,127,128,0
8156,129,127,127,127,125,129,126,129,0
8159,126,128,129,128,128,126,130,126,0
8162,133,127,128,126,127,128,128,128,0
8165,134,128,127,128,128,128,127,128,0
8168,133,127,128,126,129,129,126,128,0
8170,126,128,128,125,128,126,131,125,0
8177,136,128,127,127,128,129,127,129,0
8180,127,129,126,128,128,128,128,128,0
8183,128,128,127,127,127,130,125,128,0
8186,127,127,128,128,129,127,127,125,0
8190,131,127,128,128,128,128,127,129,0
8193,126,128,127,128,128,127,126,128,0
8196,126,128,127,127,128,129,128,129,0
8200,123,129,126,127,126,125,129,126,0
8204,129,127,129,129,129,125,128,128,0
8207,128,128,127,128,129,127,127,128,0
8210,127,129,125,127,129,129,127,129,0
8214,121,127,128,126,128,126,130,124,0
8217,127,127,129,129,129,125,126,128,0
8220,129,128,128,128,126,128,129,128,0
8223,130,128,127,127,126,128,128,129,0
8227,126,129,126,126,127,129,129,126,0
8230,131,127,128,127,127,128,126,128,0
8234,127,128,127,127,128,128,129,128,0
8237,128,128,128,127,127,129,126,128,0
8240,127,128,126,127,127,129,127,128,0
8242,126,127,130,129,129,126,128,126,0
8245,127,129,127,128,127,128,126,128,0
8249,128,128,128,127,127,130,126,128,0
8256,127,128,127,127,127,130,128,128,0
8260,124,126,130,128,129,125,128,124,0
8263,122,128,128,128,128,129,129,128,0
8266,126,128,126,128,128,128,128,129,0
8269,124,129,127,126,127,128,128,128,0
8272,119,127,128,127,127,129,128,128,0
8275,127,129,128,128,128,128,127,127,0
8278,129,127,128,127,127,128,126,128,0
8281,127,127,126,127,126,127,128,126,0
8284,133,126,129,130,132,125,129,126,0
8287,128,126,128,127,128,127,128,128,0
8290,127,127,128,128,127,128,126,128,0
8293,126,128,129,126,127,127,127,128,0
8297,126,126,129,129,130,125,130,126,0
8303,127,127,127,126,127,128,127,128,0
8309,126,129,127,127,128,129,126,128,0
8314,128,128,130,128,127,129,125,127,0
8318,124,126,128,129,128,126,129,127,0
8322,129,127,127,126,127,128,128,128,0
8327,128,128,127,128,128,128,127,128,0
8331,128,128,127,127,125,129,127,129,0
8334,119,127,127,128,131,126,128,126,0
8337,130,126,129,129,127,128,127,129,0
8341,129,128,128,127,127,128,126,128,0
8344,130,128,129,127,126,130,125,127,0
8348,125,127,128,128,128,126,128,125,0
8351,131,126,127,128,127,128,127,128,0
8353,128,129,127,127,128,128,127,128,0
8356,127,128,130,127,127,128,126,127,0
8360,124,127,128,125,127,129,127,127,0
8364,123,128,127,126,128,128,126,129,0
8368,127,128,127,127,127,127,127,128,0
8374,130,127,129,127,126,128,128,129,0
8377,126,127,130,129,131,124,130,125,0
8380,135,126,128,127,127,129,127,128,0
8383,128,128,127,127,126,128,127,129,0
8386,128,128,126,127,127,129,130,128,0
8391,124,128,127,127,128,125,129,126,0
8394,129,127,128,129,129,127,127,128,0
8398,130,128,126,127,128,128,128,128,0
8401,130,128,126,127,127,129,128,129,0
8406,123,127,126,125,130,125,128,126,0
8410,130,127,128,129,129,126,128,129,0
8413,129,128,127,128,127,128,127,127,0
8417,130,128,127,127,127,129,127,129,0
8420,128,128,128,127,127,127,125,127,0
8424,125,127,129,129,129,126,128,129,0
8427,131,128,126,127,127,128,127,128,0
8431,131,128,128,127,126,129,125,127,0
8434,125,128,127,127,128,126,128,126,0
8437,128,127,128,130,128,126,128,128,0
8442,128,129,126,128,127,127,127,128,0
8447,130,127,128,127,126,128,127,129,0
8457,125,128,128,128,128,127,129,126,0
8461,128,127,128,129,129,126,127,128,0
8464,126,127,127,127,126,129,126,128,0
8468,128,128,127,127,125,128,126,128,0
8471,127,127,129,126,126,129,127,128,0
8475,122,128,128,127,126,128,126,128,0
8478,126,127,129,128,128,128,127,128,0
8483,127,128,127,127,126,127,127,128,0
8491,123,127,128,127,127,128,129,124,0
8494,134,126,129,129,131,124,130,124,0
8497,127,128,126,128,126,128,127,128,0
8499,128,128,127,127,126,128,126,128,0
8503,132,128,128,126,125,127,127,128,0
8505,125,127,128,130,130,125,128,126,0
8510,127,128,126,128,127,127,127,128,0
8513,128,128,127,128,127,128,126,128,0
8517,126,127,128,127,127,129,126,127,0
8520,126,126,130,130,130,125,129,126,0
8524,127,128,126,126,127,128,128,128,0
8527,130,129,127,127,128,128,127,128,0
8532,127,128,127,128,126,129,127,129,0
8536,125,127,128,129,130,125,127,125,0
8540,126,128,126,127,127,128,128,128,0
8543,128,127,127,127,127,128,128,128,0
8547,129,128,128,127,127,130,127,126,0
8551,124,127,128,129,128,126,128,126,0
8555,128,125,128,126,127,128,128,128,0
8558,128,128,128,127,127,129,128,129,0
8561,128,128,128,127,127,130,125,127,0
8564,124,125,129,127,129,126,129,126,0
8568,131,127,127,125,127,128,127,129,0
8571,128,128,127,127,128,128,126,128,0
8573,127,129,126,126,128,129,128,128,0
8577,125,128,128,129,128,126,129,125,0
8580,126,126,126,126,127,128,128,128,0
8582,128,127,127,128,127,128,127,128,0
8586,128,128,126,127,127,129,127,128,0
8591,126,127,127,128,130,125,130,126,0
8595,129,126,130,128,128,129,126,128,0
8601,128,128,126,128,127,128,128,128,0
8605,129,128,128,128,127,129,128,127,0
8611,124,125,128,129,128,127,128,127,0
8614,125,127,127,129,128,128,127,128,0
8616,130,129,127,128,128,127,127,129,0
8619,129,127,126,128,127,129,128,129,0
8622,125,128,127,126,127,128,130,126,0
8625,129,127,127,130,128,127,126,128,0
8628,129,128,127,128,128,127,127,128,0
8632,130,129,127,127,127,129,125,128,0
8635,127,127,128,126,129,125,128,126,0
8638,130,127,129,128,130,124,127,128,0
8641,127,128,128,127,127,128,127,128,0
8644,129,128,125,126,128,129,126,128,0
8647,125,127,127,125,127,128,129,125,0
8651,131,126,129,129,128,125,126,128,0
8654,129,128,126,128,126,129,129,128,0
8657,129,128,127,127,126,128,126,129,0
8660,125,128,127,125,128,128,128,126,0
8663,128,127,128,129,130,125,126,128,0
8666,130,128,127,128,128,128,128,128,0
8669,130,128,127,127,127,129,128,129,0
8672,128,126,127,125,128,128,126,127,0
8674,131,127,129,128,128,125,127,128,0
8677,130,127,129,128,128,128,129,128,0
8680,129,128,127,128,126,129,128,128,0
8683,128,128,128,127,127,129,129,124,0
8685,130,126,129,129,129,126,127,128,0
8689,127,128,128,128,127,127,128,128,0
8693,128,127,127,128,128,129,126,128,0
8698,128,127,127,126,128,129,128,128,0
8702,126,126,128,129,131,125,129,124,0
8705,126,128,126,127,128,128,127,128,0
8709,130,127,127,127,126,128,125,128,0
8711,129,128,126,127,127,128,127,128,0
8714,122,126,129,129,130,126,129,125,0
8718,123,128,128,127,127,127,126,128,0
8721,131,129,126,127,128,128,129,128,0
8724,127,128,126,126,126,128,127,127,0
8727,123,127,130,128,129,125,128,125,0
8731,128,129,126,127,128,128,128,128,0
8734,131,127,128,128,129,127,127,128,0
8737,127,128,126,126,126,129,127,129,0
8740,122,127,129,129,129,126,128,125,0
8742,126,129,126,128,127,128,127,129,0
8745,131,128,127,128,128,128,129,128,0
8748,126,128,126,126,126,129,128,128,0
8750,121,127,130,128,128,125,129,125,0
8753,129,126,129,128,126,129,128,128,0
8756,130,128,127,128,127,128,128,128,0
8759,127,128,127,125,127,129,128,127,0
8762,123,126,127,129,128,125,129,125,0
8766,131,126,128,127,126,127,129,129,0
8769,129,128,128,127,128,129,129,128,0
8772,129,129,126,127,126,130,126,128,0
8774,123,127,130,129,130,127,128,127,0
8779,129,126,128,126,127,128,126,128,0
8782,130,128,126,128,127,128,127,128,0
8785,130,128,126,127,126,129,125,128,0
8788,126,128,128,129,129,126,128,125,0
8793,131,126,130,130,128,129,127,128,0
8796,129,129,127,128,127,128,127,129,0
8801,127,128,126,126,127,129,127,128,0
8806,124,126,127,126,128,125,128,126,0
8811,131,128,128,126,127,128,127,129,0
8815,128,128,127,128,127,128,128,128,0
8819,128,128,126,127,126,129,129,129,0
8823,126,128,127,126,130,125,129,126,0
8827,129,126,128,128,128,128,127,129,0
8830,127,127,126,128,127,128,129,128,0
8833,128,128,127,127,128,129,126,127,0
8836,127,128,128,127,127,127,130,126,0
8840,129,126,128,130,128,127,127,128,0
8843,129,128,126,128,127,128,128,128,0
8846,128,128,126,127,127,128,129,129,0
8849,127,129,127,126,126,129,127,127,0
8853,124,127,130,129,128,125,129,128,0
8857,129,129,126,127,128,127,127,128,0
8860,129,128,127,127,128,128,127,129,0
8863,123,128,127,127,127,128,130,125,0
8866,135,127,129,129,127,128,129,129,0
8869,129,128,127,126,127,128,126,128,0
8873,131,128,128,128,126,129,128,128,0
8878,127,128,128,126,126,128,126,128,0
8881,130,126,130,129,128,125,128,127,0
8884,128,128,126,128,128,128,127,128,0
8887,128,128,128,127,126,128,125,129,0
8890,126,127,128,128,127,128,130,127,0
8893,127,127,128,130,130,126,127,129,0
8896,129,129,128,127,127,127,128,128,0
8900,131,128,127,127,126,127,125,128,0
8909,127,127,128,126,127,127,125,126,0
8915,126,126,129,130,130,125,127,126,0
8921,128,128,126,127,127,127,126,128,0
8925,130,127,128,128,127,128,126,129,0
8931,127,128,126,126,127,127,125,125,0
8935,121,127,127,125,127,127,126,129,0
8938,126,128,126,127,128,127,128,128,0
8941,129,128,128,128,128,128,127,128,0
8945,125,127,127,127,126,126,125,127,0
8948,131,127,130,130,130,123,130,126,0
8951,129,128,127,127,127,128,126,128,0
8956,129,127,127,128,128,129,126,128,0
8960,129,128,128,127,127,129,126,126,0
8964,123,128,129,129,128,126,128,126,0
8968,132,127,129,127,127,128,128,128,0
8971,129,128,127,128,127,129,126,128,0
8974,129,128,128,126,128,128,126,127,0
8983,126,128,126,127,126,128,128,128,0
8977,123,127,128,129,128,125,128,127,0
8987,130,128,127,128,127,128,127,128,0
8990,130,128,126,127,126,128,125,128,0
9002,122,125,129,128,128,126,130,127,0
9005,129,127,127,126,127,129,128,127,0
9009,127,128,127,127,127,128,127,128,0
9012,127,128,126,128,127,129,125,127,0
9017,125,128,128,127,128,126,129,126,0
9020,129,127,128,126,128,128,127,129,0
9023,128,128,127,128,128,128,127,129,0
9027,131,127,128,127,127,127,124,127,0
9030,126,127,128,129,131,125,132,125,0
9033,135,128,127,128,127,129,126,128,0
9036,126,128,127,127,127,128,127,129,0
9041,128,128,126,127,126,129,125,128,0
9046,126,128,129,127,129,125,129,125,0
9051,129,127,129,130,128,129,128,129,0
9057,128,128,127,128,127,127,126,128,0
9060,129,128,127,126,128,129,127,129,0
9063,125,128,127,127,126,128,128,126,0
9066,125,127,128,128,128,127,126,128,0
9069,129,129,127,127,127,127,126,128,0
9072,128,128,126,126,127,128,127,129,0
9076,126,128,129,126,126,128,129,125,0
9079,129,126,128,130,130,125,126,127,0
9083,130,128,128,128,126,128,128,129,0
9087,128,128,128,127,127,129,126,128,0
9090,123,127,128,127,127,128,127,126,0
9092,130,126,131,128,129,126,127,129,0
9096,129,128,127,128,126,127,129,128,0
9100,129,128,128,127,127,129,127,129,0
9103,123,128,125,126,126,128,128,127,0
9106,126,126,127,129,130,125,128,127,0
9109,128,129,126,128,127,128,128,128,0
9112,130,128,127,127,127,128,127,128,0
9115,124,128,127,127,127,129,126,128,0
9118,120,128,128,128,130,125,129,125,0
9121,125,127,127,128,127,128,128,129,0
9123,130,128,126,127,127,128,127,129,0
9126,128,127,128,127,126,127,126,127,0
9129,129,127,128,128,130,125,129,125,0
9132,125,128,127,127,126,126,127,128,0
9135,129,128,127,127,128,128,128,128,0
9137,124,127,129,128,126,129,127,129,0
9140,124,127,127,128,130,126,128,126,0
9143,125,128,126,128,127,128,128,128,0
9148,128,128,127,127,128,128,129,129,0
9154,127,128,126,127,126,129,127,127,0
9157,126,126,128,129,130,125,128,126,0
9160,125,128,126,127,127,128,127,128,0
9163,128,128,127,127,127,128,128,128,0
9165,129,128,126,127,127,127,125,128,0
9168,124,127,129,129,129,125,127,126,0
9171,127,127,126,127,128,128,127,128,0
9174,128,129,126,127,128,128,128,128,0
9178,128,128,127,127,126,129,128,129,0
9181,122,125,128,129,129,125,130,126,0
9185,130,127,126,128,127,128,128,128,0
9189,128,127,128,128,128,128,127,128,0
9192,127,128,126,127,126,127,126,128,0
9196,126,126,129,129,128,125,130,125,0
9199,129,127,128,127,126,127,128,128,0
9201,127,128,128,127,127,127,128,129,0
9208,128,128,128,126,127,128,127,128,0
9217,125,127,127,128,129,126,128,126,0
9223,130,126,128,128,126,128,127,127,0
9226,129,129,127,126,127,128,128,128,0
9230,127,128,126,126,126,129,128,129,0
9233,127,127,128,127,128,125,128,126,0
9237,129,127,128,128,127,128,129,129,0
9241,130,128,126,127,127,129,129,128,0
9245,130,128,128,127,126,128,126,128,0
9248,126,128,127,127,129,126,133,126,0
9251,130,127,128,129,128,127,127,128,0
9254,127,128,126,128,126,129,128,128,0
9258,130,128,126,127,126,129,127,129,0
9261,124,126,127,125,129,126,127,126,0
9265,130,126,128,128,126,128,127,129,0
9269,127,128,127,127,128,128,127,128,0
9274,128,128,126,128,128,129,127,128,0
9278,123,128,127,127,127,129,130,127,0
9283,128,127,128,128,128,128,126,127,0
9287,129,128,127,129,127,129,126,128,0
9291,128,128,126,127,128,129,128,128,0
9294,122,128,128,127,126,127,129,126,0
9297,129,126,128,129,130,125,128,129,0
9300,127,128,127,128,128,127,126,128,0
9302,128,128,128,128,127,128,126,128,0
9307,126,128,126,128,129,125,130,126,0
9310,128,127,128,128,128,127,126,128,0
9314,130,129,127,128,126,128,127,128,0
9319,125,128,126,127,128,128,127,129,0
9322,124,128,126,127,127,129,128,126,0
9325,130,127,130,129,130,126,128,128,0
9328,128,128,126,129,126,127,126,128,0
9330,130,128,129,128,128,129,126,128,0
9333,128,128,129,127,127,128,128,125,0
9336,130,127,129,129,130,125,129,124,0
9339,128,128,127,127,128,127,127,128,0
9343,130,129,126,127,126,127,128,129,0
9346,128,128,128,127,126,129,127,128,0
9349,125,127,130,129,129,125,128,125,0
9353,124,128,127,127,126,127,128,128,0
9356,131,129,127,127,126,129,125,129,0
9360,128,128,130,127,127,127,126,128,0
9364,121,128,131,129,128,126,128,126,0
9368,122,128,127,127,127,128,129,129,0
9371,130,128,127,128,128,128,126,129,0
9374,127,128,127,127,126,128,127,128,0
9377,124,126,129,130,130,125,128,126,0
9383,125,128,128,128,127,128,127,128,0
9389,130,129,126,127,127,128,129,128,0
9395,128,128,128,127,127,127,126,128,0
9400,120,127,130,129,129,125,128,125,0
9403,131,127,128,127,127,128,128,128,0
9406,127,128,127,128,128,128,126,128,0
9410,128,128,128,128,128,129,128,128,0
9414,122,127,128,129,130,126,129,126,0
9418,128,126,127,128,127,128,128,128,0
9421,129,128,126,128,128,128,127,128,0
9424,129,128,127,127,126,129,127,128,0
9429,122,127,128,125,128,127,129,126,0
9432,129,126,127,127,126,128,129,128,0
9436,128,128,126,126,129,128,127,129,0
9439,126,128,126,127,126,130,127,128,0
9443,124,128,127,126,128,125,129,127,0
9446,128,127,128,126,128,128,126,129,0
9449,130,128,128,128,128,128,128,128,0
9452,130,128,127,127,126,128,126,129,0
9455,126,128,128,128,129,126,129,125,0
9458,131,127,129,129,126,129,127,128,0
9461,127,128,128,128,127,129,127,128,0
9464,129,128,128,127,127,128,126,127,0
9468,124,128,128,127,126,126,129,126,0
9471,130,127,127,130,129,126,128,129,0
9474,129,128,127,128,127,128,127,128,0
9477,128,128,128,128,127,128,125,127,0
9480,123,127,128,127,126,127,128,125,0
9483,130,127,128,129,128,128,128,129,0
9485,128,127,128,127,127,127,127,128,0
9489,130,128,126,126,126,129,125,127,0
9492,127,127,128,126,128,126,129,125,0
9496,129,127,129,129,129,126,128,129,0
9500,126,128,127,128,127,128,128,127,0
9504,132,128,128,126,127,129,127,129,0
9512,125,129,128,128,128,126,127,125,0
9517,129,127,129,129,129,126,128,129,0
9520,126,128,127,127,127,128,128,128,0
9522,130,128,128,127,127,128,127,129,0
9529,128,127,128,127,127,129,127,126,0
9532,130,126,130,130,128,126,128,128,0
9535,129,128,127,128,127,127,127,128,0
9537,127,128,126,127,127,128,126,127,0
9541,127,127,129,127,127,128,127,125,0
9544,130,127,130,129,128,127,129,129,0
9546,125,129,127,128,127,128,129,128,0
9550,129,128,127,128,127,128,129,129,0
9553,123,128,127,128,128,128,127,126,0
9556,130,127,130,128,130,125,129,124,0
9560,127,128,127,127,127,128,128,127,0
9563,131,128,128,127,126,128,126,128,0
9567,128,127,128,126,127,128,127,128,0
9570,124,127,128,128,129,126,128,126,0
9573,129,129,127,127,128,128,127,128,0
9576,129,128,128,128,126,128,127,128,0
9579,129,129,128,127,126,129,127,128,0
9583,126,127,129,129,130,126,129,126,0
9588,129,127,128,127,126,127,130,129,0
9591,130,128,127,127,128,128,127,128,0
9595,129,128,127,127,127,127,125,127,0
9599,125,127,128,127,126,129,127,129,0
9601,125,128,126,127,127,127,128,128,0
9604,129,128,127,128,126,127,128,128,0
9607,128,128,127,127,127,128,126,127,0
9611,128,126,129,130,129,125,132,127,0
9618,130,126,128,127,126,127,128,127,0
9622,129,128,128,127,128,128,127,128,0
9625,130,128,128,128,127,127,127,128,0
9629,122,126,131,128,129,125,130,126,0
9633,129,127,127,128,127,128,128,128,0
9636,128,128,126,128,127,128,127,128,0
9640,129,128,126,126,126,129,127,128,0
9643,125,127,128,128,130,126,128,126,0
9646,130,127,127,128,126,128,128,128,0
9651,130,128,127,127,127,127,128,128,0
9654,128,128,126,127,127,130,127,128,0
9657,125,127,130,128,128,125,129,127,0
9660,128,126,128,128,127,128,127,128,0
9664,129,128,127,127,127,128,128,129,0
9667,128,128,127,126,126,129,127,128,0
9670,120,127,127,127,126,128,130,126,0
9673,128,126,129,129,127,129,128,128,0
9676,128,128,127,127,128,128,127,129,0
9679,128,128,127,127,126,130,126,127,0
9682,125,128,127,127,130,125,128,127,0
9686,128,127,128,129,129,127,129,129,0
9689,126,128,127,128,127,126,127,128,0
9692,127,128,128,127,127,128,128,128,0
9694,122,127,127,125,127,126,129,127,0
9697,128,126,127,130,128,127,127,128,0
9702,129,127,127,127,127,127,128,128,0
9705,128,128,128,128,127,128,125,128,0
9709,127,128,129,127,127,128,126,126,0
9712,131,127,129,129,129,125,128,129,0
9717,128,128,127,127,127,127,127,128,0
9722,130,128,126,129,128,128,127,128,0
9725,123,128,128,127,126,127,126,129,0
9730,121,127,128,126,126,128,126,128,0
9735,131,127,126,128,128,127,128,128,0
9739,131,128,128,129,128,128,126,126,0
9741,128,128,129,127,128,125,133,124,0
9744,136,126,129,129,132,126,127,127,0
9748,130,127,127,128,128,128,127,128,0
9751,131,127,126,127,128,129,129,128,0
9754,124,129,127,126,126,129,128,127,0
9758,131,127,129,129,129,126,126,127,0
9761,128,128,127,127,127,128,127,128,0
9764,129,129,126,127,126,128,128,128,0
9768,127,128,126,127,127,129,127,126,0
9771,130,127,129,130,131,124,128,128,0
9774,128,128,126,127,128,128,127,129,0
9776,128,128,127,126,128,129,126,128,0
9780,125,127,127,128,127,129,126,126,0
9783,125,126,129,130,130,126,129,125,0
9786,126,128,127,128,127,128,127,128,0
9790,128,129,128,128,127,128,128,129,0
9793,128,128,127,126,126,128,127,128,0
9796,125,127,128,130,130,126,128,126,0
9802,121,128,126,127,126,127,128,128,0
9806,130,128,127,127,127,128,128,128,0
9813,128,128,126,126,127,128,128,128,0
9824,122,126,128,128,129,125,129,125,0
9828,127,128,126,127,125,128,127,129,0
9832,128,128,126,129,127,128,127,128,0
9836,127,128,127,125,127,130,126,128,0
9839,120,125,130,128,129,125,129,126,0
9843,128,127,128,128,127,128,127,128,0
9850,127,128,127,128,127,127,128,128,0
9854,130,128,129,128,127,129,127,129,0
9858,122,125,130,128,128,126,128,126,0
9861,132,127,127,126,128,128,127,128,0
9864,129,128,127,128,127,128,129,128,0
9869,128,129,126,127,125,128,127,129,0
9874,123,127,127,129,130,126,129,126,0
9880,129,126,127,127,127,128,127,129,0
9892,128,128,128,129,127,128,126,128,0
9896,131,128,128,127,126,129,127,128,0
9900,126,127,128,129,130,126,130,127,0
9905,129,127,129,128,127,129,127,128,0
9909,129,128,128,127,128,128,127,129,0
9912,128,128,128,128,127,129,127,128,0
9916,121,127,128,127,126,128,129,125,0
9921,131,127,128,128,127,128,127,128,0
9926,130,128,127,127,126,129,127,128,0
9929,128,128,126,127,125,128,125,128,0
9934,126,128,126,127,128,128,129,125,0
9940,129,127,128,129,127,128,127,128,0
9944,125,128,128,127,128,128,128,128,0
9948,130,128,128,127,127,130,125,126,0
9951,126,127,128,127,126,128,128,125,0
9955,131,126,129,129,129,125,127,128,0
9958,127,128,128,127,128,127,127,128,0
9961,130,127,129,127,127,129,125,128,0
9964,123,128,127,127,126,128,128,126,0
9968,131,127,128,128,129,125,127,129,0
9971,129,128,127,127,128,128,128,128,0
9973,130,128,129,126,128,128,127,129,0
9978,122,128,127,127,127,125,131,125,0
9982,134,127,128,130,129,126,127,129,0
9989,129,129,126,128,127,127,127,128,0
9992,128,128,127,127,126,128,127,128,0
9996,128,127,128,127,126,129,129,125,0
10000,129,127,130,129,129,126,129,129,0
10003,127,128,127,128,128,127,128,128,0
10006,128,128,127,128,127,129,126,128,0
10009,128,128,127,127,126,129,126,128,0
10013,123,126,130,129,129,126,126,128,0
10016,128,129,126,127,127,127,127,128,0
10019,130,128,127,128,129,128,126,128,0
10022,124,127,126,126,127,129,127,126,0
10025,127,126,127,129,130,125,129,125,0
10029,123,129,126,128,127,128,128,128,0
10032,129,128,126,128,128,128,128,129,0
10035,127,128,127,126,126,128,126,126,0
10038,123,126,130,130,128,125,128,126,0
10040,129,127,128,127,126,128,128,129,0
10043,129,129,127,127,126,128,127,128,0
10047,128,128,127,127,126,129,127,129,0
10049,124,126,130,129,130,125,128,125,0
10052,131,124,128,128,126,128,128,128,0
10055,130,128,127,128,127,128,126,128,0
10057,128,128,127,127,128,129,127,128,0
10060,125,127,130,128,129,126,130,126,0
10065,130,126,127,126,127,128,129,128,0
10067,128,128,126,128,127,128,128,129,0
10071,127,128,126,127,126,129,127,129,0
10074,124,127,129,128,131,127,128,126,0
10078,130,127,126,128,127,129,129,128,0
10083,129,128,128,128,128,128,128,128,0
10087,127,128,127,126,128,129,128,126,0
10090,126,126,129,129,128,126,129,126,0
10093,128,126,128,128,127,129,128,129,0
10096,128,128,127,127,127,128,128,129,0
10099,128,127,127,128,127,130,125,127,0
10103,124,128,127,127,130,126,127,125,0
10106,131,127,127,127,127,128,128,129,0
10110,128,128,126,128,128,128,127,128,0
10115,127,128,126,127,126,128,127,129,0
10119,125,127,128,129,128,126,128,125,0
10124,129,127,127,127,127,128,127,128,0
10127,128,128,126,128,126,128,126,128,0
10130,127,129,126,127,126,129,126,128,0
10133,126,128,128,127,127,129,130,126,0
10137,130,127,128,129,128,128,126,128,0
10140,130,128,125,128,127,128,128,128,0
10144,129,128,128,128,127,129,129,128,0
10147,122,126,127,128,129,125,129,126,0
10150,129,128,128,129,130,125,127,128,0
10153,130,128,125,128,127,128,128,129,0
10155,127,128,126,128,128,128,126,129,0
10158,124,127,128,127,128,129,126,127,0
10161,126,127,129,128,129,127,127,129,0
10164,130,128,128,127,128,128,127,128,0
10168,131,128,127,128,127,129,127,129,0
10171,126,127,128,127,127,128,129,125,0
10175,128,127,128,129,130,125,129,128,0
10179,129,128,126,128,128,128,127,128,0
10181,131,127,129,127,126,128,125,129,0
10186,126,128,128,126,127,126,131,125,0
10191,135,126,128,129,128,126,125,128,0
10196,128,129,127,127,128,127,129,128,0
10199,128,128,128,127,126,128,126,127,0
10202,127,128,131,127,126,128,126,127,0
10205,126,125,129,128,129,126,127,124,0
10209,128,128,126,126,127,128,127,129,0
10213,129,128,126,128,127,128,128,129,0
10216,124,129,126,127,127,128,127,128,0
10220,126,127,129,128,130,126,129,126,0
10224,125,129,126,127,127,127,128,128,0
10227,128,129,127,127,127,128,127,128,0
10230,128,128,127,127,126,129,127,128,0
10234,123,126,127,127,130,126,129,126,0
10237,128,128,128,127,127,128,127,129,0
10240,130,128,128,128,127,127,128,129,0
10245,125,128,126,127,128,127,127,128,0
10248,125,127,129,129,131,127,128,125,0
10251,125,128,127,127,126,128,129,129,0
10254,130,128,127,127,126,128,127,128,0
10257,129,128,127,127,126,129,127,128,0
10260,120,127,130,128,130,125,129,126,0
10263,129,125,128,129,127,128,129,128,0
10266,128,128,127,127,127,128,128,128,0
10269,129,128,129,127,125,126,126,128,0
10272,125,126,129,129,130,125,129,126,0
10275,129,127,128,128,126,128,128,128,0
10278,128,127,127,128,128,129,126,128,0
10281,127,128,126,127,125,128,127,128,0
10285,120,126,130,128,129,126,129,125,0
10289,130,127,127,128,126,129,128,128,0
10293,127,128,126,127,128,128,128,129,0
10299,127,128,128,126,127,128,127,128,0
10306,122,125,128,128,131,126,130,126,0
10310,127,127,126,128,127,128,128,128,0
10313,127,129,126,129,128,128,127,128,0
10316,129,128,128,127,126,129,126,128,0
10320,125,127,127,127,127,126,129,125,0
10325,131,127,128,128,126,128,127,129,0
10328,127,128,126,127,127,128,129,128,0
10331,127,128,126,127,126,128,127,128,0
10335,124,128,127,127,126,128,127,126,0
10338,128,127,129,129,129,127,128,128,0
10340,129,129,127,128,127,128,129,129,0
10344,127,128,126,127,128,129,129,128,0
10347,127,128,129,130,129,126,127,126,0
10349,130,127,129,129,129,128,129,129,0
10352,129,128,127,127,129,127,128,128,0
10355,128,128,128,127,126,128,125,127,0
10358,127,127,127,125,126,128,129,126,0
10412,130,127,128,128,130,125,128,128,0
10422,127,128,127,128,128,128,128,128,0
10435,129,128,126,128,128,129,127,128,0
10478,123,128,127,128,127,127,130,125,0
10487,134,127,128,129,128,128,126,129,0
10494,129,129,127,128,128,128,125,128,0
10502,126,128,126,126,128,129,126,129,0
10509,125,129,126,127,126,129,126,128,0
10518,125,127,129,128,128,126,128,129,0
10545,129,128,128,127,127,128,126,128,0
10551,129,128,128,127,127,129,125,128,0
10559,127,128,128,128,128,126,128,126,0
10566,133,127,129,128,128,128,129,129,0
10571,127,128,127,127,128,128,128,128,0
10576,130,128,126,128,127,128,129,129,0
10581,125,129,127,126,126,127,127,126,0
10585,124,126,130,129,128,125,129,129,0
10589,129,129,127,127,127,128,128,129,0
10592,128,128,126,127,127,128,128,128,0
10595,128,128,128,127,126,127,125,127,0
10598,126,125,128,129,129,126,128,127,0
10601,129,128,128,127,127,128,128,128,0
10604,129,127,127,127,127,127,127,129,0
10609,124,127,127,126,127,128,126,125,0
10614,122,128,128,128,128,126,129,126,0
10617,124,128,126,127,127,128,127,128,0
10621,128,128,127,127,128,128,127,128,0
10627,127,127,127,128,127,129,125,126,0
10630,130,127,128,129,129,125,130,125,0
10633,130,126,127,125,127,128,128,128,0
10637,129,128,128,127,126,128,128,128,0
10641,128,128,127,127,127,128,126,128,0
10643,125,127,129,129,131,125,133,126,0
10681,127,127,128,126,126,128,127,129,0
10691,129,129,128,128,127,128,126,128,0
10701,127,127,128,128,127,128,127,127,0
10711,125,126,128,128,128,126,128,125,0
10718,129,127,127,126,130,129,128,129,0
10749,128,129,128,128,127,128,128,129,0
10755,128,128,126,126,126,129,128,128,0
10762,121,127,127,128,129,126,129,126,0
10767,132,127,127,126,128,128,128,129,0
10771,127,129,127,128,129,127,126,128,0
10775,129,128,127,126,127,129,127,127,0
10779,126,128,128,129,128,126,128,125,0
10782,131,127,129,128,128,127,129,129,0
10785,129,128,127,127,127,127,127,128,0
10788,127,129,125,128,127,129,127,128,0
10792,127,127,127,128,130,125,127,126,0
10795,130,127,127,127,127,128,127,129,0
10798,127,128,127,128,127,127,128,128,0
10802,130,128,128,127,126,129,126,128,0
10805,121,127,127,127,126,128,130,127,0
10808,127,126,127,128,126,128,126,128,0
10811,127,128,128,127,128,128,127,129,0
10814,129,128,128,127,127,128,127,129,0
10817,122,128,128,126,129,125,130,126,0
10819,129,127,127,130,129,128,128,128,0
10822,126,129,127,127,127,128,127,127,0
10825,126,127,128,127,126,129,128,128,0
10827,125,128,127,127,128,126,129,125,0
10830,129,127,128,129,129,125,127,129,0
10833,128,128,126,127,128,128,128,128,0
10836,130,128,129,127,126,129,125,128,0
10841,124,128,128,126,127,129,127,128,0
10844,125,127,129,129,130,125,128,128,0
10849,130,128,127,128,128,128,127,128,0
10853,131,128,126,127,126,128,126,127,0
10860,126,127,126,127,126,129,128,126,0
10864,131,126,130,130,129,125,127,128,0
10867,126,128,127,128,127,128,127,128,0
10870,129,128,128,128,126,129,128,128,0
10884,127,128,126,128,128,127,129,126,0
10887,129,127,131,128,129,127,127,128,0
10890,130,129,126,127,128,128,129,128,0
10893,130,128,128,127,127,129,127,127,0
10898,127,128,128,127,127,128,127,128,0
10903,124,126,129,129,129,126,129,128,0
10907,127,128,128,126,128,128,128,128,0
10910,128,128,128,128,127,128,127,128,0
10913,127,128,128,126,126,129,128,126,0
10917,130,127,129,128,130,126,128,125,0
10920,126,128,126,128,127,128,128,129,0
10923,129,129,128,127,126,127,128,128,0
10927,127,128,126,127,127,129,128,128,0
10931,122,126,130,129,128,125,129,126,0
10933,128,128,127,126,128,129,126,128,0
10937,130,128,128,128,127,129,126,129,0
10950,126,128,126,126,128,129,128,127,0
10953,123,126,129,129,130,126,128,125,0
10957,128,128,127,128,128,128,128,128,0
10961,128,127,127,127,127,128,127,128,0
10965,128,128,127,127,127,129,127,128,0
10968,124,127,128,127,126,128,127,128,0
10974,128,128,127,128,127,128,129,128,0
10978,128,128,127,128,128,128,128,128,0
10983,124,128,127,127,128,129,126,127,0
11018,125,127,130,130,130,125,130,125,0
11023,135,127,127,126,127,128,127,128,0
11027,128,128,126,128,128,127,126,129,0
11030,128,128,127,127,127,128,128,127,0
11040,124,128,130,129,129,126,128,127,0
11090,131,126,127,127,128,128,127,129,0
11107,129,128,126,127,129,128,128,129,0
11112,128,128,129,128,127,129,127,128,0
11117,121,127,127,126,127,129,127,128,0
11122,125,128,128,127,128,128,126,128,0
11126,130,128,126,128,127,128,126,128,0
11129,128,127,126,127,127,127,128,128,0
11132,126,127,130,129,129,126,129,126,0
11135,129,127,128,129,129,127,128,128,0
11139,129,128,127,126,127,127,128,128,0
11142,130,128,128,126,127,129,128,128,0
11146,122,127,128,125,128,126,128,126,0
11149,129,126,129,129,130,125,128,129,0
11153,129,128,128,127,128,128,128,128,0
11156,131,128,126,127,128,129,126,129,0
11160,127,128,128,126,129,126,129,126,0
11163,131,127,128,128,128,129,127,128,0
11166,130,129,126,127,127,128,128,128,0
11169,131,128,127,126,127,129,129,129,0
11173,126,127,127,127,126,128,129,125,0
11176,130,127,129,129,129,126,127,128,0
11181,128,128,127,128,127,128,128,128,0
11185,127,128,127,128,128,129,127,129,0
11190,124,128,127,126,127,129,128,125,0
11195,130,126,131,129,129,127,128,129,0
11198,127,128,127,127,128,129,127,128,0
11201,130,127,127,126,128,129,127,129,0
11204,123,128,127,127,128,126,127,125,0
11208,129,127,129,128,129,125,127,124,0
11211,128,128,126,128,127,128,128,129,0
11214,126,128,127,127,126,128,127,128,0
11221,128,128,128,127,125,129,126,128,0
11225,120,127,128,126,126,129,126,128,0
11229,129,128,128,128,128,127,127,128,0
11232,130,128,128,129,128,128,126,128,0
11235,123,129,130,129,129,126,128,126,0
11240,129,127,127,129,129,125,128,125,0
11244,122,128,128,128,127,128,128,128,0
11251,130,128,126,128,128,128,128,128,0
11253,127,128,126,126,126,129,127,128,0
11256,123,126,128,129,130,126,127,126,0
11259,124,128,126,127,128,127,126,128,0
11262,131,128,126,128,127,128,128,129,0
11265,128,128,127,127,126,128,127,127,0
11268,125,128,129,127,131,125,129,126,0
11270,129,127,126,127,128,128,127,128,0
11273,127,128,128,128,127,129,129,128,0
11277,126,128,126,127,127,128,128,128,0
11280,124,128,127,128,128,126,128,125,0
11285,127,128,127,126,127,128,127,128,0
11288,131,129,126,127,127,128,128,127,0
11293,130,128,128,126,127,127,126,128,0
11296,125,126,128,129,130,126,129,127,0
11302,130,126,128,127,126,128,127,128,0
11305,127,128,126,128,128,128,126,128,0
11311,129,128,128,127,126,129,127,128,0
11315,125,128,128,128,130,126,129,127,0
11317,131,127,127,128,127,129,126,129,0
11320,129,129,127,127,126,127,128,128,0
11323,128,128,126,127,126,128,125,127,0
11326,127,127,127,128,130,126,129,126,0
11330,130,127,129,128,128,128,129,129,0
11334,130,128,127,127,127,128,128,128,0
11338,127,128,127,127,126,130,126,128,0
11345,126,128,128,127,128,126,129,125,0
11349,129,127,127,127,128,128,126,128,0
11351,130,128,126,128,127,128,127,129,0
11355,127,129,127,127,127,128,127,128,0
11359,126,127,128,126,126,127,125,128,0
11362,122,127,128,128,128,127,127,129,0
11366,128,129,127,128,127,128,126,128,0
11370,130,127,129,127,127,128,127,127,0
11373,123,127,128,129,131,125,130,125,0
11375,133,127,128,128,128,128,127,129,0
11378,126,127,127,128,128,128,128,128,0
11382,130,128,127,127,127,129,127,128,0
11385,126,127,127,127,128,127,129,126,0
11388,129,127,127,128,128,127,128,129,0
11391,127,128,127,126,128,128,127,128,0
11394,130,127,128,126,128,129,126,129,0
11396,123,128,129,127,126,126,130,127,0
11400,128,127,128,128,129,125,127,128,0
11402,129,129,127,128,127,128,127,128,0
11405,129,128,126,127,127,128,128,129,0
11410,123,128,126,128,127,129,129,125,0
11417,133,127,130,130,128,126,126,128,0
11421,129,128,127,128,128,128,128,128,0
11423,127,127,128,128,128,128,126,127,0
11426,125,128,128,127,127,128,130,127,0
11429,128,127,127,128,130,125,127,128,0
11432,128,128,128,127,127,128,128,128,0
11435,128,128,126,126,128,128,126,128,0
11438,124,127,128,125,126,129,127,128,0
11441,123,127,130,129,130,126,128,125,0
11444,125,129,126,128,128,128,128,128,0
11447,128,129,126,128,127,127,127,128,0
11450,127,128,127,127,127,128,128,126,0
11454,126,127,129,129,131,124,128,128,0
11457,128,128,128,127,127,128,127,128,0
11459,130,129,127,128,127,128,127,128,0
11462,127,128,126,126,126,129,128,128,0
11467,119,127,130,129,130,126,129,125,0
11470,123,128,128,127,128,128,127,128,0
11473,128,129,126,127,126,128,127,127,0
11476,130,128,128,127,127,128,125,127,0
11480,125,126,129,128,130,126,128,126,0
11484,131,125,128,127,127,128,128,128,0
11488,129,128,126,128,126,128,127,127,0
11491,129,128,127,126,127,129,128,127,0
11493,124,126,130,129,129,125,128,126,0
11497,121,128,127,128,126,128,128,128,0
11501,129,128,126,128,127,128,128,128,0
11505,128,127,128,127,127,128,126,128,0
11509,124,128,130,130,129,126,129,126,0
11512,130,126,127,128,126,127,127,128,0
11518,128,129,127,129,127,129,127,128,0
11522,130,128,127,127,126,129,124,125,0
11526,123,127,128,129,131,126,127,126,0
11532,130,126,127,127,126,128,127,129,0
11538,129,128,127,126,127,128,127,127,0
11542,129,128,127,126,126,128,126,128,0
11545,124,127,128,128,128,126,129,126,0
11548,131,127,128,127,127,128,129,129,0
11552,127,128,126,128,128,128,128,128,0
11555,129,128,127,126,127,129,127,129,0
11559,122,127,128,126,127,126,129,126,0
11562,131,126,129,129,128,128,126,128,0
11565,128,128,127,127,128,128,127,129,0
11569,128,128,127,126,128,129,129,129,0
11572,124,129,128,128,129,126,129,126,0
11575,130,127,127,130,128,128,128,128,0
11577,128,129,127,127,128,128,126,129,0
11580,128,128,127,128,127,129,126,129,0
11583,125,128,127,126,127,128,129,126,0
11586,129,127,128,129,130,125,127,128,0
11590,129,128,127,128,128,128,127,128,0
11594,131,128,127,128,128,129,127,128,0
11596,125,128,127,127,127,126,128,125,0
11600,129,127,130,129,129,126,127,128,0
11603,131,128,127,127,126,127,127,128,0
11606,130,128,128,128,127,128,126,128,0
11609,124,127,128,127,126,127,127,128,0
11612,124,127,128,126,127,129,127,128,0
11616,128,128,126,128,129,128,128,128,0
11620,130,128,128,128,127,128,125,128,0
11623,126,128,127,127,127,127,125,127,0
11627,132,127,129,130,130,125,129,125,0
11632,123,128,126,128,128,128,127,128,0
11644,130,127,128,127,127,129,127,129,0
11648,126,127,127,126,128,127,130,125,0
11653,130,126,128,128,129,125,128,125,0
11657,130,128,126,127,128,128,128,128,0
11660,128,128,127,127,128,128,128,129,0
11663,127,128,127,125,128,128,128,126,0
11667,126,125,129,128,129,125,128,124,0
11670,128,128,127,126,128,128,128,128,0
11672,126,128,127,127,127,128,128,128,0
11676,124,128,126,127,126,129,127,126,0
11679,126,126,129,129,129,126,128,126,0
11683,123,128,128,128,127,128,128,129,0
11687,127,128,128,128,127,127,129,129,0
11689,128,129,127,126,126,127,127,129,0
11693,124,125,129,129,129,125,129,125,0
11696,129,127,128,126,127,128,127,128,0
11700,127,127,128,127,128,129,127,128,0
11704,129,128,127,127,126,128,126,128,0
11707,123,128,128,128,126,127,129,126,0
11710,127,127,128,128,126,128,127,128,0
11713,130,128,127,128,127,128,128,128,0
11716,129,128,127,127,127,128,125,128,0
11719,125,127,130,128,128,126,127,126,0
11722,130,127,129,127,127,129,129,129,0
11726,127,128,127,128,128,128,126,127,0
11729,129,128,126,127,125,128,127,127,0
11732,124,126,130,129,129,126,129,125,0
11735,130,127,128,128,126,128,127,129,0
11738,130,129,126,128,128,128,127,128,0
11741,130,127,128,125,126,130,126,129,0
11746,124,128,128,126,127,129,127,128,0
11751,124,128,128,128,128,128,126,128,0
11756,130,128,126,127,128,127,128,127,0
11762,130,128,127,127,126,127,126,128,0
11765,127,127,130,130,131,125,130,124,0
11768,134,126,128,127,127,128,128,129,0
11771,127,128,126,127,128,128,128,128,0
11773,130,128,126,127,126,129,125,127,0
11776,126,127,128,128,130,126,127,126,0
11779,130,127,129,129,127,129,126,128,0
11782,129,128,126,126,128,128,127,127,0
11785,130,127,129,128,126,129,126,127,0
11787,123,128,126,128,128,127,130,126,0
11792,130,127,128,129,126,128,128,129,0
11795,128,129,126,127,127,127,129,128,0
11799,130,129,126,126,128,129,127,129,0
11802,123,127,126,127,127,129,127,126,0
11806,128,127,128,129,128,128,127,128,0
11810,126,128,128,128,127,128,128,128,0
11814,129,128,127,127,127,128,128,128,0
11817,125,128,128,127,128,125,131,125,0
11820,135,127,128,127,128,127,126,128,0
11823,129,128,126,128,128,128,127,129,0
11828,129,128,126,126,128,129,126,129,0
11834,124,128,127,127,126,128,127,127,0
11838,129,126,129,128,129,125,126,128,0
11841,129,128,127,127,129,127,128,128,0
11845,131,128,128,128,127,128,127,128,0
11849,128,128,127,127,127,128,129,126,0
11852,129,126,128,129,130,125,127,128,0
11857,128,128,128,127,126,128,129,128,0
11860,130,128,128,127,128,128,129,129,0
11866,122,128,127,127,126,129,127,128,0
11870,122,128,128,128,127,129,126,128,0
11873,129,128,126,129,128,127,128,128,0
11877,128,128,127,128,127,128,127,128,0
11880,128,127,128,128,127,127,130,125,0
11883,130,126,129,128,130,125,129,125,0
11887,124,128,127,127,126,127,128,128,0
11890,129,127,129,127,126,128,126,128,0
11894,125,127,128,128,127,126,125,127,0
11897,126,126,129,130,131,125,129,126,0
11900,123,128,128,128,126,128,127,128,0
11903,130,128,127,128,127,128,126,127,0
11905,129,128,129,127,126,128,126,128,0
11909,122,127,130,130,130,126,130,126,0
11912,125,128,126,127,127,129,127,128,0
11915,125,128,127,128,126,128,125,128,0
11920,127,128,127,126,126,129,127,128,0
11924,125,127,129,129,129,126,128,125,0
11927,125,128,127,126,127,128,128,128,0
11931,130,128,128,128,127,127,125,128,0
11934,129,128,127,127,126,129,125,127,0
11937,126,126,129,129,128,126,129,126,0
11946,128,125,127,127,126,128,127,128,0
11950,130,128,128,127,127,128,128,129,0
11954,126,128,127,126,128,128,128,129,0
11958,122,127,128,129,129,125,130,127,0
11963,129,127,127,127,126,128,129,129,0
11966,128,128,127,127,126,128,127,128,0
11969,128,128,126,126,128,128,126,128,0
11972,123,126,131,129,130,126,130,126,0
11976,131,126,128,127,128,128,127,129,0
11981,129,128,127,128,128,128,128,129,0
11987,129,128,125,127,128,129,126,129,0
11990,125,127,127,127,130,126,128,126,0
11994,131,127,129,129,127,128,127,128,0
11997,128,128,126,128,128,128,127,128,0
12000,127,128,125,126,128,129,127,128,0
12003,123,127,128,129,128,126,129,125,0
12007,130,127,128,128,127,128,126,128,0
12011,127,128,127,128,127,127,127,129,0
12013,128,128,127,128,127,129,127,127,0
12016,125,127,127,127,127,127,126,129,0
12020,124,128,126,127,127,128,126,128,0
12023,130,128,128,129,127,127,128,128,0
12025,131,128,128,127,126,128,128,128,0
12029,123,127,128,129,129,126,128,126,0
12033,130,126,128,129,130,125,127,128,0
12036,130,128,128,127,127,128,127,128,0
12039,128,128,127,126,129,129,127,127,0
12041,126,128,126,126,127,129,129,125,0
12044,131,128,128,127,129,125,126,128,0
12048,128,129,128,128,127,128,127,128,0
12051,128,128,128,127,126,128,126,128,0
12054,126,128,131,127,126,127,128,126,0
12059,129,127,129,129,130,126,127,128,0
12062,129,128,126,128,128,128,127,128,0
12065,126,128,126,127,128,128,126,128,0
12068,128,128,127,127,127,129,128,126,0
12071,131,127,127,128,128,126,128,129,0
12075,128,127,126,126,127,128,128,128,0
12077,129,128,128,127,127,128,126,129,0
12080,124,127,127,126,128,128,126,126,0
12084,130,127,128,129,129,126,127,124,0
12088,127,128,127,128,127,128,128,128,0
12093,130,127,126,128,127,128,129,129,0
12097,123,128,126,125,127,128,127,127,0
12100,122,127,129,129,130,126,128,126,0
12102,123,128,128,128,127,127,127,128,0
12106,131,128,126,127,127,127,126,128,0
12110,128,128,127,126,126,129,126,129,0
12113,122,127,128,128,130,125,129,125,0
12116,126,128,126,127,129,127,127,127,0
12120,131,128,127,128,127,129,127,128,0
12123,127,127,128,126,128,126,126,128,0
12126,121,126,129,129,129,125,128,126,0
12129,129,124,128,127,126,128,127,128,0
12132,130,128,127,127,127,128,128,128,0
12135,129,128,128,127,126,128,126,128,0
12137,123,127,127,126,129,126,128,126,0
12141,131,127,128,127,128,128,127,129,0
12144,129,128,128,127,128,127,127,129,0
12146,126,128,128,127,126,129,128,129,0
12149,124,125,130,128,129,126,127,126,0
12152,131,126,128,128,127,128,128,128,0
12155,129,128,126,128,127,128,127,129,0
12158,127,128,126,128,127,129,127,129,0
12160,124,127,129,129,130,126,128,126,0
12163,130,127,129,128,127,128,128,127,0
12166,130,128,127,128,127,127,127,129,0
12169,127,128,127,126,127,129,128,129,0
12173,122,127,127,127,128,125,129,127,0
12176,129,127,129,130,128,128,127,129,0
12180,129,128,127,128,128,128,128,128,0
12185,128,128,126,127,127,129,127,129,0
12189,126,128,128,127,127,131,130,126,0
12193,129,127,128,129,128,128,128,128,0
12199,128,128,127,128,128,127,129,128,0
12204,130,129,126,127,126,129,126,127,0
12207,127,128,129,129,129,126,129,126,0
12210,129,127,128,129,127,128,126,128,0
12213,130,128,126,128,127,128,128,129,0
12215,131,129,126,127,126,129,127,128,0
12218,127,127,129,125,126,128,126,126,0
12221,130,127,130,129,129,126,128,128,0
12224,128,128,127,127,128,128,128,128,0
12227,131,128,128,128,126,128,125,128,0
12230,124,127,129,127,126,128,129,125,0
12233,131,127,129,129,129,125,127,128,0
12237,129,129,127,128,127,129,128,128,0
12240,129,128,126,126,128,129,127,128,0
12246,124,127,127,127,128,128,128,126,0
12253,130,126,128,129,130,124,129,129,0
12256,128,128,128,128,127,128,128,128,0
12261,126,128,128,128,127,128,127,128,0
12265,126,128,127,128,127,127,127,128,0
12269,126,127,129,128,127,126,129,126,0
12272,130,129,126,127,127,128,127,128,0
12275,128,128,125,128,128,127,129,129,0
12279,127,127,127,127,126,128,127,126,0
12282,129,127,128,129,130,126,128,125,0
12285,128,128,126,126,128,128,129,128,0
12289,131,128,128,128,126,127,126,129,0
12292,127,128,127,125,127,128,127,129,0
12294,125,126,129,129,129,125,128,126,0
12297,125,127,126,128,128,128,128,128,0
12301,128,129,127,127,128,128,128,129,0
12306,125,127,125,128,128,129,126,126,0
12312,130,127,128,128,130,126,129,125,0
12315,122,127,126,128,126,128,126,128,0
12318,130,128,127,128,127,129,127,129,0
12322,126,127,128,126,128,129,127,128,0
12326,124,127,128,129,130,126,129,126,0
12329,129,126,126,128,127,128,128,128,0
12332,131,128,127,128,127,128,128,128,0
12335,129,128,128,126,128,126,128,126,0
12339,125,127,128,129,128,126,128,126,0
12342,123,128,127,127,127,128,127,128,0
12344,127,128,127,128,127,128,127,129,0
12349,130,128,128,127,127,129,126,126,0
12352,123,127,128,126,130,125,128,126,0
12355,129,127,127,126,127,128,128,128,0
12361,131,128,126,128,127,128,128,129,0
12364,129,128,127,128,127,129,128,129,0
12368,123,128,129,129,129,126,128,126,0
12371,132,127,128,127,128,127,128,128,0
12375,128,128,127,127,127,128,127,128,0
12378,128,129,127,127,125,130,127,128,0
12381,126,127,129,129,130,126,130,126,0
12384,130,127,129,128,126,129,128,129,0
12388,127,129,127,128,128,128,127,128,0
12391,129,127,128,128,127,130,127,128,0
12394,123,127,127,128,130,126,128,126,0
12398,129,126,129,129,127,129,129,128,0
12401,128,128,125,128,127,128,127,129,0
12405,128,129,127,128,127,129,128,129,0
12408,124,127,127,126,126,126,129,124,0
12411,129,126,128,128,128,128,127,127,0
12415,131,128,127,128,127,128,126,129,0
12421,127,128,127,127,127,128,125,128,0
12424,127,128,128,125,127,125,129,126,0
12428,131,126,128,129,127,128,127,129,0
12431,128,129,128,127,126,127,129,127,0
12434,130,129,127,127,126,129,125,127,0
12437,127,128,128,127,129,125,132,126,0
12440,128,126,130,129,129,128,127,128,0
12444,126,128,127,128,127,129,127,128,0
12447,127,128,128,128,127,129,126,127,0
12450,125,128,128,127,127,127,127,125,0
12453,131,126,130,128,129,126,127,129,0
12456,131,128,127,127,126,128,128,129,0
12461,128,128,126,127,127,128,127,129,0
12464,125,127,126,127,129,126,129,125,0
12466,130,127,129,128,129,126,128,128,0
12469,126,128,127,126,127,128,127,128,0
12472,127,128,127,128,128,128,126,129,0
12475,123,127,126,127,127,128,129,126,0
12479,129,127,128,129,130,126,127,129,0
12483,130,128,128,127,127,129,128,128,0
12491,130,127,128,127,126,128,128,129,0
12494,127,128,126,127,126,128,127,128,0
12498,121,127,130,128,129,126,128,125,0
12501,124,128,127,127,127,127,127,129,0
12504,128,128,127,128,128,128,125,128,0
12507,127,128,126,127,127,128,130,127,0
12511,128,127,128,128,129,126,129,125,0
12515,123,128,128,128,127,127,127,128,0
12518,130,128,126,127,127,128,126,128,0
12522,128,128,127,127,126,128,126,128,0
12527,125,126,128,128,128,125,127,127,0
12532,128,128,128,128,127,128,127,128,0
12536,127,128,127,127,125,128,125,128,0
12540,126,127,129,126,127,129,127,128,0
12543,122,127,128,129,130,125,128,125,0
12552,131,126,126,127,126,128,129,128,0
12556,127,128,128,127,126,127,126,128,0
12559,128,128,127,126,126,128,127,128,0
12563,119,126,130,129,131,125,130,126,0
12566,130,127,127,126,128,128,127,128,0
12570,129,128,127,128,128,128,128,129,0
12573,128,128,128,127,125,128,127,128,0
12576,126,127,130,128,130,126,127,126,0
12580,132,126,127,128,127,128,128,128,0
12583,128,128,127,127,128,128,126,127,0
12587,129,128,128,126,127,129,127,127,0
12590,123,127,127,128,130,126,127,126,0
12592,131,127,127,128,127,128,127,128,0
12596,131,127,128,128,127,128,127,128,0
12599,127,129,126,127,127,128,128,127,0
12602,125,127,127,128,130,126,128,127,0
12605,129,127,128,127,126,127,126,128,0
12608,127,128,127,128,128,127,126,128,0
12611,128,128,126,127,126,128,125,128,0
12614,127,125,129,129,130,126,128,127,0
12619,128,127,128,128,127,128,126,128,0
12622,126,130,128,128,127,127,127,128,0
12625,129,128,128,127,126,128,127,128,0
12629,122,128,128,127,128,126,131,126,0
12632,130,127,129,129,128,127,126,128,0
12635,127,128,126,128,127,128,127,128,0
12638,129,128,126,127,126,128,127,129,0
12642,128,127,127,126,127,126,130,126,0
12647,130,127,129,129,129,126,129,128,0
12651,127,128,126,127,127,128,128,128,0
12653,129,128,126,127,126,129,127,128,0
12656,128,128,127,127,127,127,126,128,0
12660,123,128,126,127,127,129,128,128,0
12663,131,128,125,128,128,129,127,128,0
12666,130,128,128,128,128,128,127,127,0
12670,123,127,127,127,127,127,129,124,0
12673,135,126,129,129,129,125,128,127,0
12677,128,128,127,127,127,127,128,129,0
12680,128,128,127,126,127,128,126,127,0
12682,123,128,128,127,126,128,128,125,0
12685,135,126,128,130,131,125,126,129,0
12689,129,128,126,128,128,127,129,128,0
12693,128,128,128,127,126,128,127,128,0
12695,129,128,126,126,126,129,127,128,0
12700,123,126,129,130,131,126,128,125,0
12703,123,128,128,127,128,127,128,128,0
12707,128,128,126,128,127,128,128,129,0
