Start Recording
7,126,127,129,130,125,128,127,127,0
14,124,127,126,128,127,129,129,129,0
18,128,127,128,127,127,129,126,127,0
24,128,127,131,127,125,126,125,126,0
29,127,127,128,126,126,127,127,128,0
35,126,127,129,129,134,126,126,128,0
39,128,128,126,131,128,129,130,129,0
43,130,126,128,124,127,128,131,127,0
47,128,126,131,125,124,127,126,126,0
51,126,128,128,128,132,126,128,128,0
55,127,127,126,129,129,128,126,128,0
58,127,128,126,126,129,129,129,129,0
62,124,128,126,128,124,127,127,127,0
65,131,128,127,125,127,129,128,129,0
69,129,128,126,129,131,129,129,129,0
73,127,127,126,127,128,128,127,127,0
77,128,128,128,127,127,125,131,128,0
80,128,126,129,131,134,126,129,128,0
84,128,127,126,127,128,130,128,129,0
88,129,127,128,124,127,128,127,127,0
91,128,125,128,128,126,124,126,128,0
94,127,128,129,131,134,127,128,127,0
97,126,128,125,127,131,129,131,129,0
101,129,128,126,125,126,127,127,128,0
104,127,128,129,127,124,128,126,125,0
106,126,128,127,125,124,128,126,127,0
110,127,128,125,127,125,128,127,128,0
114,128,128,127,128,125,128,127,128,0
117,128,127,127,126,127,123,128,127,0
120,129,127,132,130,133,126,128,128,0
123,123,127,128,126,127,129,127,129,0
126,128,127,131,131,127,129,127,128,0
129,127,128,127,128,126,127,127,126,0
133,122,128,128,129,129,126,128,126,0
137,121,129,126,124,126,129,128,129,0
143,130,128,127,127,129,130,129,129,0
146,129,127,129,127,123,128,126,127,0
149,129,125,126,125,125,128,128,127,0
152,130,127,126,128,129,129,130,129,0
155,130,129,125,127,127,127,127,128,0
159,127,128,127,128,124,127,126,125,0
163,127,127,129,129,131,125,128,127,0
167,128,127,129,128,133,127,127,127,0
170,129,129,126,126,130,130,129,128,0
173,127,128,126,125,126,129,129,128,0
176,128,126,127,124,123,128,126,125,0
179,126,127,129,128,127,128,127,128,0
183,129,128,129,127,131,128,129,127,0
185,129,128,127,124,127,128,126,127,0
188,125,128,126,128,125,125,126,127,0
209,130,127,128,129,125,126,127,129,0
213,128,129,128,129,129,129,128,128,0
218,128,128,127,128,127,128,127,128,0
223,128,127,130,132,138,126,131,129,0
228,130,126,130,130,134,126,126,127,0
232,129,128,127,125,126,129,127,129,0
236,129,128,128,126,125,128,125,125,0
240,123,128,128,128,129,127,129,127,0
243,128,128,131,130,132,125,128,129,0
247,128,128,126,127,126,129,128,129,0
250,129,128,127,127,123,127,128,126,0
254,129,127,128,125,126,124,126,126,0
257,127,127,128,131,132,124,130,129,0
261,127,128,125,128,131,129,130,130,0
276,129,128,126,127,124,127,125,127,0
280,129,127,128,125,122,127,126,125,0
283,127,127,127,128,124,126,125,128,0
287,127,128,128,125,130,129,128,128,0
290,126,128,125,126,128,127,128,128,0
306,127,128,127,127,123,124,129,128,0
310,127,128,130,132,135,125,126,128,0
314,128,129,128,127,127,128,128,128,0
318,129,128,130,129,131,127,128,126,0
323,126,125,127,125,126,124,130,128,0
327,127,127,129,128,128,125,126,128,0
331,129,127,126,129,126,129,128,128,0
334,127,128,128,128,127,130,127,128,0
338,126,128,126,128,124,125,125,125,0
341,126,128,127,127,123,127,125,127,0
345,127,129,128,128,125,127,128,129,0
349,128,128,127,128,125,127,126,126,0
352,128,127,129,127,124,126,126,127,0
356,125,126,130,130,132,125,129,127,0
360,129,127,128,126,124,129,128,128,0
363,130,128,131,129,129,129,127,127,0
367,124,127,128,125,126,128,130,123,0
371,122,128,127,126,127,128,128,127,0
375,128,128,125,125,126,128,129,129,0
378,129,128,127,123,127,128,127,127,0
382,128,128,128,128,124,126,127,127,0
386,128,128,129,132,134,126,129,128,0
390,128,127,127,126,126,129,128,129,0
395,130,128,128,126,128,129,129,128,0
400,125,127,130,128,124,125,126,127,0
405,128,127,129,128,125,128,128,128,0
408,130,128,129,128,126,127,127,127,0
411,127,127,129,127,128,129,128,128,0
415,129,127,129,123,125,125,126,127,0
418,125,127,127,129,123,126,126,127,0
421,128,127,128,126,131,128,128,128,0
424,129,129,127,128,127,128,127,128,0
427,128,127,128,127,125,126,127,126,0
430,126,127,129,130,137,126,133,128,0
433,128,127,129,131,132,125,128,129,0
436,127,127,126,127,126,129,130,128,0
439,130,127,126,126,122,126,129,127,0
443,124,127,126,125,124,128,127,127,0
446,130,128,126,126,126,129,128,128,0
450,129,129,128,126,127,129,126,127,0
454,127,127,130,128,124,128,127,127,0
457,130,127,132,133,131,126,128,128,0
462,129,127,129,129,124,130,128,129,0
466,129,129,127,127,127,130,127,128,0
469,128,128,128,129,126,130,126,127,0
472,130,126,126,122,124,125,126,126,0
475,123,127,125,128,130,126,128,128,0
478,126,128,126,128,130,128,131,128,0
482,129,128,126,127,124,126,126,128,0
486,134,125,127,126,124,127,128,128,0
489,128,128,128,130,132,125,128,129,0
492,129,128,126,127,128,129,127,127,0
496,128,128,128,130,127,128,128,127,0
500,124,127,127,128,128,125,129,127,0
505,126,128,127,127,130,125,127,129,0
509,127,128,129,127,128,130,128,129,0
512,129,128,125,126,124,128,127,127,0
516,130,126,128,127,125,126,126,127,0
519,127,127,126,126,123,126,125,127,0
522,127,127,129,130,129,127,127,128,0
526,127,128,126,128,128,128,127,127,0
529,126,127,126,126,125,128,127,126,0
531,126,127,129,130,135,126,128,128,0
535,125,129,127,129,127,128,127,128,0
538,128,128,127,128,124,128,126,125,0
541,126,127,126,125,124,125,126,126,0
544,130,124,128,130,124,130,128,129,0
547,129,128,127,127,132,129,130,129,0
550,126,128,126,128,126,128,127,127,0
554,131,127,128,127,124,124,128,127,0
559,127,128,130,130,132,126,130,128,0
563,128,128,127,127,127,130,128,128,0
566,129,128,127,127,129,129,129,128,0
569,133,127,130,129,126,126,128,126,0
572,126,127,127,127,123,128,127,126,0
576,129,128,129,125,130,129,130,128,0
579,126,128,124,129,130,127,128,126,0
582,125,128,128,126,125,124,126,125,0
585,127,127,128,126,125,129,127,127,0
588,127,128,127,127,128,129,128,129,0
591,129,128,126,128,128,129,128,126,0
594,128,127,129,130,135,126,130,127,0
596,127,126,129,130,134,126,130,128,0
600,128,127,126,127,128,129,132,129,0
605,129,128,130,128,126,128,127,127,0
608,129,127,127,125,126,127,128,126,0
611,126,126,129,130,128,126,127,127,0
614,128,127,126,125,128,129,129,129,0
616,129,128,130,124,126,129,129,128,0
619,128,128,127,131,124,130,129,128,0
622,131,126,127,125,123,128,126,127,0
626,127,128,127,128,128,128,129,128,0
629,128,128,128,129,130,128,129,129,0
633,126,129,126,128,123,125,128,127,0
636,127,126,128,128,133,125,129,127,0
639,128,127,127,123,127,128,129,128,0
642,129,128,127,122,127,129,130,128,0
645,127,129,126,128,122,127,133,128,0
648,129,127,131,128,121,127,129,127,0
651,130,128,128,127,127,129,132,128,0
654,127,128,126,128,129,129,131,129,0
657,128,128,127,127,125,128,129,126,0
659,124,126,127,126,125,125,130,127,0
662,126,128,128,130,132,126,126,128,0
666,129,129,128,127,127,129,126,128,0
669,129,128,127,127,124,126,125,127,0
672,131,127,126,124,121,125,129,127,0
676,129,127,128,131,131,125,127,130,0
679,130,129,126,126,127,129,125,128,0
683,128,129,127,123,124,127,125,127,0
687,128,125,128,127,124,127,125,127,0
690,130,124,128,127,127,130,127,129,0
693,126,129,126,128,127,128,126,129,0
697,127,127,125,127,128,128,124,128,0
701,125,127,128,130,133,126,127,127,0
706,129,127,129,131,132,125,123,128,0
709,129,128,126,126,127,129,125,128,0
712,128,128,128,123,128,128,127,128,0
715,126,127,125,127,124,127,126,127,0
718,129,126,126,127,124,128,125,128,0
721,129,128,128,129,127,128,125,127,0
723,129,128,127,127,123,127,127,127,0
726,126,128,127,129,129,126,127,126,0
731,127,127,129,131,134,126,125,126,0
734,128,128,130,127,129,129,126,128,0
738,127,128,128,127,126,128,126,126,0
741,130,126,129,126,125,123,127,126,0
744,127,125,129,129,129,126,126,126,0
747,130,129,126,125,127,128,127,129,0
750,129,128,129,129,128,129,126,127,0
753,124,127,128,126,125,128,128,126,0
756,127,127,130,132,133,126,126,127,0
759,126,128,127,129,129,128,128,128,0
763,128,128,129,127,126,128,126,127,0
767,129,128,132,129,122,127,125,126,0
769,127,127,128,127,123,128,127,127,0
772,126,128,127,132,129,129,129,129,0
775,130,128,127,126,127,127,125,127,0
778,129,127,129,123,130,126,127,127,0
782,128,126,130,131,134,126,128,127,0
785,125,129,127,126,129,128,128,129,0
788,127,128,126,126,129,128,126,127,0
791,128,126,126,123,125,129,126,125,0
795,121,127,132,130,132,126,128,128,0
799,129,128,127,126,127,129,128,128,0
804,128,128,127,126,129,129,127,127,0
807,128,128,127,126,126,128,125,127,0
810,125,127,128,128,122,128,127,127,0
813,128,126,128,130,128,128,128,129,0
816,130,128,126,126,129,129,127,128,0
819,127,127,128,123,127,127,125,126,0
821,124,127,127,128,125,124,127,128,0
825,126,127,128,130,134,125,126,129,0
828,130,128,128,128,129,128,128,129,0
834,127,128,126,127,128,123,126,128,0
836,128,127,129,126,122,127,126,126,0
839,127,127,128,129,127,128,127,129,0
843,128,129,128,128,130,129,127,128,0
847,129,127,128,123,128,127,127,125,0
851,127,126,128,131,136,126,130,128,0
855,128,126,130,129,128,129,128,129,0
858,127,129,128,127,127,128,127,128,0
860,129,129,128,130,123,127,125,127,0
864,128,128,130,131,135,126,128,128,0
867,126,128,129,129,132,125,128,129,0
870,129,127,126,127,130,130,129,128,0
874,130,128,127,126,126,127,126,125,0
877,128,128,130,129,125,127,127,127,0
880,126,127,126,126,125,127,126,128,0
883,130,128,128,129,130,129,128,127,0
886,127,128,130,131,127,127,126,125,0
890,124,126,128,122,123,126,127,127,0
893,127,127,127,130,134,126,127,127,0
896,127,129,126,129,131,129,129,129,0
903,129,129,127,128,125,129,128,127,0
908,125,127,127,127,124,125,126,125,0
912,126,127,130,130,124,127,125,127,0
916,128,127,126,127,131,128,128,128,0
919,128,127,126,129,128,128,126,128,0
922,128,128,128,126,130,124,128,127,0
926,127,127,127,127,135,126,127,127,0
930,127,129,129,130,129,129,127,129,0
933,129,128,127,128,126,128,127,128,0
936,128,128,129,127,125,127,125,125,0
939,126,126,129,127,124,128,127,129,0
942,131,127,129,127,129,129,127,129,0
946,129,128,127,128,128,128,127,127,0
949,129,126,130,131,134,126,129,126,0
952,127,127,129,129,132,126,128,127,0
956,128,128,125,129,129,128,127,128,0
959,130,127,126,125,130,129,127,127,0
962,133,127,124,124,123,127,127,127,0
966,126,127,131,127,123,129,126,127,0
969,129,129,126,128,126,129,127,129,0
972,130,128,127,129,128,129,127,128,0
975,128,128,127,129,125,126,126,126,0
978,125,127,128,129,133,126,128,127,0
981,127,128,128,132,127,129,128,128,0
984,128,128,126,127,128,129,127,127,0
987,126,127,124,122,127,128,128,126,0
991,120,125,128,125,126,128,126,127,0
995,128,128,127,129,126,128,128,129,0
998,130,128,128,126,131,129,129,128,0
1003,125,127,127,126,127,125,127,126,0
1007,127,127,130,130,140,127,133,127,0
1012,128,127,128,128,126,130,127,128,0
1018,128,127,127,127,128,130,128,128,0
1021,130,128,128,127,123,128,127,128,0
1025,126,125,128,124,123,126,125,125,0
1028,125,128,126,126,130,129,128,129,0
1032,130,128,128,127,128,128,126,127,0
1035,126,127,131,128,127,127,126,127,0
1038,121,127,131,129,133,126,130,128,0
1041,127,127,129,134,126,130,128,129,0
1044,130,129,126,127,129,127,128,128,0
1046,129,128,127,129,126,128,127,125,0
1049,126,127,131,131,121,125,129,127,0
1052,128,127,133,128,124,129,131,129,0
1055,129,129,121,130,128,129,129,129,0
1058,129,128,129,128,124,129,128,127,0
1061,130,127,126,124,125,125,129,128,0
1065,127,128,128,131,134,126,129,129,0
1068,129,129,127,128,127,129,129,129,0
1075,128,128,126,127,124,128,126,128,0
1078,128,127,127,124,122,125,126,125,0
1082,127,128,125,122,126,129,128,128,0
1085,127,129,128,127,127,128,128,129,0
1089,128,128,128,128,127,125,126,124,0
1092,125,127,127,125,123,123,132,128,0
1095,125,127,132,132,133,126,127,128,0
1097,130,127,128,126,130,129,129,128,0
1100,130,128,125,127,127,130,127,127,0
1103,125,127,126,124,121,126,126,125,0
1106,126,128,127,126,126,128,130,129,0
1109,128,128,127,128,132,128,128,128,0
1113,128,128,127,130,126,128,129,128,0
1116,125,127,128,120,125,125,127,127,0
1119,126,129,129,133,133,126,128,128,0
1123,125,127,127,128,129,129,127,128,0
1127,131,128,128,127,127,129,127,126,0
1133,125,127,127,126,122,128,128,126,0
1136,123,126,131,131,134,126,127,128,0
1140,124,129,130,126,128,129,128,128,0
1143,128,128,123,129,129,129,128,128,0
1146,127,128,126,126,123,126,125,124,0
1149,126,127,127,125,124,129,126,128,0
1152,127,128,125,127,131,130,130,129,0
1155,128,129,125,126,127,128,127,127,0
1159,127,128,127,128,124,127,126,126,0
1162,125,126,129,129,131,126,128,128,0
1165,129,127,129,127,129,129,126,128,0
1168,129,128,129,129,126,127,127,128,0
1171,128,128,128,127,122,128,127,125,0
1174,124,126,130,130,133,127,128,127,0
1178,128,126,125,126,129,130,129,129,0
1181,129,129,126,127,129,129,130,128,0
1184,129,127,128,129,123,127,126,125,0
1186,124,128,131,120,126,129,128,128,0
1190,127,129,123,127,128,130,129,129,0
1193,129,127,126,128,127,129,128,128,0
1196,129,128,126,127,125,127,127,125,0
1199,122,127,127,127,135,126,134,129,0
1202,127,128,127,126,130,129,129,129,0
1205,129,128,126,128,128,129,128,127,0
1208,129,128,126,126,123,127,125,125,0
1213,126,127,130,130,130,126,128,127,0
1216,127,125,130,129,131,129,129,129,0
1219,127,128,128,128,128,128,127,127,0
1222,127,128,127,128,129,127,127,124,0
1230,130,126,127,127,123,125,127,127,0
1234,131,128,128,128,128,128,127,128,0
1237,130,128,126,129,130,129,129,129,0
1240,127,128,126,128,124,127,127,127,0
1243,124,127,133,130,139,126,129,126,0
1246,126,127,128,123,127,129,130,129,0
1249,128,128,126,129,128,129,128,128,0
1252,128,128,127,126,123,126,127,125,0
1256,126,126,128,129,123,127,127,126,0
1259,125,127,132,129,127,129,129,129,0
1263,128,128,130,120,130,129,129,129,0
1266,132,127,128,127,124,127,125,126,0
1270,130,126,127,131,134,126,129,128,0
1274,126,128,130,132,133,125,131,130,0
1277,128,128,127,128,128,129,128,129,0
1281,130,128,128,126,125,128,125,125,0
1284,125,127,128,128,121,124,127,127,0
1287,126,128,129,128,127,130,128,129,0
1293,128,129,125,128,127,127,129,130,0
1296,129,128,126,126,124,126,124,126,0
1300,127,127,128,129,128,125,126,126,0
1303,126,127,129,129,127,129,129,129,0
1306,129,128,126,127,130,130,127,129,0
1309,131,128,127,126,126,129,128,127,0
1313,129,127,127,126,123,127,126,127,0
1315,126,126,130,131,129,124,128,129,0
1319,129,130,125,127,130,129,128,129,0
1323,128,128,127,128,128,128,129,126,0
1326,124,128,124,126,125,124,127,128,0
1328,129,127,130,129,130,125,131,129,0
1332,128,129,125,126,132,129,128,128,0
1336,130,128,126,127,125,128,127,128,0
1340,128,128,128,127,124,125,131,127,0
1347,127,126,131,136,132,126,127,128,0
1350,130,127,131,128,128,129,128,129,0
1354,128,129,122,126,127,129,127,127,0
1357,130,128,128,128,125,126,126,126,0
1360,126,126,128,127,122,125,126,129,0
1364,128,129,126,128,130,128,129,129,0
1366,126,128,126,127,126,128,127,128,0
1370,128,126,126,129,130,126,128,127,0
1372,128,127,131,130,131,126,126,124,0
1378,127,129,127,127,127,129,129,129,0
1383,131,128,126,126,129,129,128,128,0
1386,130,128,128,127,126,124,128,126,0
1389,126,127,129,130,130,127,127,126,0
1393,126,128,125,127,129,128,128,129,0
1396,127,129,126,127,126,129,127,127,0
1401,128,127,129,126,126,130,127,127,0
1406,123,126,128,126,124,129,127,128,0
1409,128,128,126,127,130,129,129,129,0
1412,127,129,123,126,129,129,129,129,0
1415,129,128,126,127,126,127,128,127,0
1418,125,127,133,133,134,126,128,128,0
1423,127,127,127,127,126,129,129,128,0
1426,127,127,128,131,130,129,128,128,0
1429,130,127,127,126,124,126,126,127,0
1432,126,127,128,126,123,127,127,127,0
1435,125,127,129,131,131,129,129,129,0
1440,126,128,125,128,130,129,127,129,0
1445,130,127,127,127,124,127,126,126,0
1448,126,124,131,132,130,126,129,128,0
1453,129,127,128,127,130,129,129,128,0
1458,128,128,124,121,131,130,129,129,0
1463,128,129,125,129,123,126,126,126,0
1467,129,127,130,131,135,127,127,127,0
1470,127,127,129,130,127,130,128,128,0
1474,130,128,127,126,127,128,127,128,0
1477,129,127,127,127,126,129,128,128,0
1480,127,128,130,126,123,128,126,126,0
1483,123,128,127,127,129,128,129,129,0
1486,128,128,127,127,129,128,127,129,0
1491,131,127,126,122,125,126,127,127,0
1494,131,128,128,131,137,127,131,127,0
1497,126,128,131,131,130,127,127,128,0
1501,129,128,128,129,128,128,129,129,0
1505,129,128,127,127,122,126,124,125,0
1509,129,128,127,126,122,125,125,126,0
1515,126,127,128,123,126,128,129,129,0
1518,127,129,126,128,129,128,128,130,0
1521,130,127,127,127,125,127,127,128,0
1526,132,126,128,128,124,125,133,128,0
1529,125,126,129,131,130,125,127,128,0
1538,131,128,126,127,129,129,128,129,0
1541,131,128,129,129,125,128,124,126,0
1545,128,128,127,124,126,126,130,127,0
1550,126,127,128,130,132,126,126,129,0
1553,128,129,126,129,127,129,127,128,0
1557,127,128,129,128,128,129,127,127,0
1561,128,128,125,126,123,124,126,125,0
1566,128,127,127,129,122,126,127,129,0
1570,130,128,128,126,127,128,129,130,0
1577,130,129,125,123,127,128,126,127,0
1589,127,128,127,128,123,127,125,127,0
1593,123,127,127,127,125,129,127,129,0
1599,128,128,127,129,129,129,128,129,0
1607,125,127,130,126,123,127,129,127,0
1610,127,127,133,132,135,126,129,128,0
1604,127,128,127,129,127,128,126,126,0
1613,123,128,129,124,128,128,126,128,0
1617,128,128,124,128,127,128,128,128,0
1622,132,128,128,127,122,127,126,124,0
1625,127,127,129,131,134,126,129,127,0
1628,128,126,126,125,129,129,128,128,0
1630,128,128,127,127,126,128,128,128,0
1634,130,127,128,127,123,124,127,127,0
1637,127,126,129,128,134,126,127,127,0
1640,126,127,127,129,130,129,129,129,0
1643,129,128,127,126,132,128,128,128,0
1646,132,126,130,125,125,127,128,125,0
1648,126,125,128,130,127,125,126,124,0
1651,128,128,128,130,128,128,127,128,0
1655,127,128,127,127,125,128,127,127,0
1659,131,128,124,124,126,127,127,127,0
1662,123,126,129,130,130,125,129,128,0
1666,126,127,127,128,127,129,127,128,0
1673,127,128,126,129,130,129,129,128,0
1677,128,127,125,127,126,128,128,127,0
1681,122,127,128,124,122,128,127,128,0
1686,126,128,126,127,126,128,126,129,0
1690,128,128,128,130,131,128,127,127,0
1694,127,126,127,126,129,125,129,127,0
1697,128,126,126,125,132,126,129,128,0
1701,127,128,127,125,125,130,127,129,0
1705,128,128,127,129,128,130,131,129,0
1712,129,127,128,127,122,127,126,128,0
1719,131,126,129,129,123,124,127,128,0
1723,131,127,126,127,128,129,130,129,0
1727,129,128,127,127,128,129,128,128,0
1730,128,128,129,127,125,128,128,128,0
1734,127,128,127,127,124,124,129,127,0
1737,125,128,130,132,130,126,125,128,0
1741,129,128,129,126,130,130,129,128,0
1744,128,127,123,124,127,129,127,127,0
1748,127,128,130,130,134,126,130,127,0
1751,127,127,129,130,124,129,128,129,0
1755,131,129,128,126,128,129,127,128,0
1760,126,129,125,123,127,129,127,128,0
1763,128,127,127,127,121,127,127,126,0
1766,127,127,126,128,128,128,129,129,0
1768,129,129,127,130,131,128,128,128,0
1771,126,128,128,126,127,127,128,127,0
1775,129,127,129,132,131,126,129,127,0
1778,128,127,129,128,131,125,130,128,0
1782,129,129,127,124,128,129,127,127,0
1785,127,129,127,128,125,127,127,128,0
1788,127,127,131,127,122,126,127,126,0
1791,130,125,130,129,130,125,127,129,0
1795,129,129,128,130,129,128,128,129,0
1799,129,128,129,124,129,129,128,128,0
1802,127,127,126,127,124,128,125,126,0
1806,123,127,127,126,127,128,127,128,0
1809,124,129,127,129,131,129,129,129,0
1814,127,128,126,128,127,128,128,127,0
1817,131,127,129,130,131,125,130,127,0
1820,129,126,130,132,133,126,129,127,0
1824,124,129,125,125,129,129,129,128,0
1828,129,128,127,128,127,129,129,127,0
1834,128,128,128,127,123,126,126,125,0
1842,125,128,126,127,125,129,126,128,0
1846,128,128,128,129,130,128,126,128,0
1849,128,128,129,128,127,128,127,128,0
1853,128,128,125,127,123,125,127,126,0
1856,123,126,130,131,138,125,129,128,0
1859,130,125,126,128,129,130,128,128,0
1863,128,129,127,128,128,128,127,127,0
1866,127,126,129,128,123,127,126,127,0
1870,124,127,127,127,123,128,127,128,0
1873,129,128,129,129,128,128,128,128,0
1876,127,128,128,129,130,128,129,127,0
1880,128,128,125,128,126,127,128,126,0
1882,127,126,130,129,132,126,130,128,0
1885,127,127,131,129,130,130,129,129,0
1888,128,128,127,129,126,128,127,128,0
1891,130,128,129,123,127,127,128,125,0
1894,126,125,127,129,134,126,130,128,0
1898,128,128,128,128,127,130,128,128,0
1900,129,128,127,127,128,129,126,128,0
1903,129,127,129,128,124,129,126,126,0
1907,125,127,130,130,134,126,129,127,0
1910,127,127,127,128,127,129,128,128,0
1914,129,127,127,127,129,129,128,128,0
1916,129,128,125,125,122,127,126,127,0
1920,126,128,128,124,123,127,126,126,0
1923,127,128,130,124,130,128,127,128,0
1926,130,128,126,130,128,129,127,129,0
1929,127,128,124,125,125,126,127,127,0
1933,125,127,130,130,133,125,127,127,0
1936,126,127,129,131,130,128,129,128,0
1938,125,128,127,128,127,129,129,129,0
1942,126,128,126,126,124,127,128,128,0
1947,127,127,127,128,129,125,129,127,0
1952,128,127,129,131,129,128,129,128,0
1956,130,128,127,127,127,129,130,128,0
1959,127,127,127,129,125,129,129,127,0
1962,129,127,128,125,122,126,126,126,0
1966,130,127,128,127,126,127,127,128,0
1969,128,128,129,129,129,128,129,128,0
1972,126,127,127,128,126,127,127,127,0
1975,128,128,128,126,125,125,129,128,0
1979,126,127,128,130,134,125,127,128,0
1983,128,128,127,127,131,130,129,128,0
1987,129,129,127,127,125,128,126,127,0
1990,128,126,127,128,130,125,127,127,0
1993,129,126,131,133,129,125,126,128,0
1996,129,129,125,125,128,129,128,127,0
1999,130,128,127,126,125,129,127,128,0
2002,126,129,126,122,122,126,125,126,0
2006,124,128,128,128,125,127,127,127,0
2009,127,127,128,129,130,129,129,127,0
2012,130,127,126,127,128,129,127,126,0
2016,127,127,128,128,124,124,129,127,0
2019,128,127,131,134,132,126,126,127,0
2023,125,129,128,126,126,129,129,127,0
2027,129,128,123,120,128,129,129,128,0
2030,130,128,127,127,123,127,127,125,0
2033,124,127,128,129,135,126,128,128,0
2037,123,129,127,127,128,129,127,128,0
2040,127,128,126,127,129,129,128,128,0
2043,128,128,125,124,123,126,126,126,0
2047,121,126,128,125,123,129,128,130,0
2051,128,129,127,128,131,128,129,129,0
2054,128,128,127,128,127,128,126,128,0
2058,131,126,128,127,125,127,127,126,0
2061,123,127,129,129,133,126,129,128,0
2068,128,128,127,127,127,128,127,128,0
2072,128,129,127,127,129,129,128,128,0
2076,128,127,127,126,122,126,126,126,0
2079,128,126,130,133,134,126,129,128,0
2082,125,128,129,127,129,129,129,129,0
2086,129,128,127,124,129,129,129,129,0
2089,129,127,126,125,123,128,126,125,0
2093,126,127,127,125,122,126,125,127,0
2095,127,129,129,130,127,128,127,128,0
2099,128,128,129,131,129,129,128,128,0
2102,127,128,126,127,126,127,126,126,0
2107,127,125,128,126,132,126,127,128,0
2110,128,128,127,127,128,130,127,128,0
2113,127,129,126,128,131,130,129,129,0
2116,126,128,126,125,124,128,127,127,0
2119,131,126,127,125,126,126,129,128,0
2122,129,128,128,127,130,129,128,129,0
2126,127,129,127,127,128,129,127,128,0
2131,128,128,129,128,124,128,126,125,0
2136,127,127,126,127,123,125,128,127,0
2151,129,127,130,131,128,128,128,129,0
2157,127,128,127,123,131,130,129,129,0
2166,131,128,127,127,124,127,124,127,0
2175,129,127,127,125,123,128,127,127,0
2179,127,129,127,127,126,128,126,128,0
2183,129,127,127,128,127,128,127,129,0
2187,130,128,127,127,127,129,128,127,0
2190,128,124,130,129,131,126,128,127,0
2194,130,126,128,130,133,124,129,129,0
2198,129,128,126,128,128,129,128,128,0
2202,128,128,128,127,128,128,128,125,0
2209,129,127,126,126,123,125,126,127,0
2213,126,127,131,130,127,129,129,128,0
2216,127,129,126,127,128,128,128,128,0
2218,129,127,130,129,126,127,124,126,0
2222,132,126,125,124,125,126,125,127,0
2225,129,127,130,128,133,126,126,128,0
2229,128,129,127,127,129,129,127,129,0
2232,130,128,129,126,127,128,126,127,0
2235,124,127,127,126,124,128,127,127,0
2238,128,127,128,128,123,125,128,128,0
2243,128,128,128,127,127,127,128,129,0
2247,129,128,124,127,127,128,128,128,0
2250,126,128,127,127,123,126,129,127,0
2253,127,127,128,130,134,125,126,126,0
2256,129,128,130,129,127,128,126,129,0
2259,130,128,129,127,128,128,127,127,0
2263,130,128,128,127,122,125,126,126,0
2266,124,127,131,130,135,126,126,126,0
2270,128,128,127,128,128,129,127,127,0
2273,129,128,127,130,126,129,125,126,0
2276,130,127,128,127,125,127,126,127,0
2280,125,127,129,129,133,126,126,125,0
2284,125,129,127,127,128,128,128,129,0
2287,127,128,126,128,126,128,125,127,0
2290,133,124,130,130,125,127,126,126,0
2294,126,127,127,125,123,127,127,128,0
2297,131,128,128,127,129,127,127,129,0
2300,130,128,128,129,128,127,126,128,0
2309,127,127,129,129,131,126,129,128,0
2306,128,128,129,128,128,125,128,127,0
2314,127,128,126,128,127,130,130,129,0
2320,129,128,126,126,128,129,129,129,0
2323,128,127,127,128,122,127,127,125,0
2329,126,126,127,127,125,127,127,127,0
2331,126,128,123,126,130,128,129,129,0
2335,128,128,125,127,127,128,128,128,0
2339,128,127,130,130,123,126,126,125,0
2342,122,126,131,130,132,126,128,127,0
2346,128,126,129,128,131,129,129,128,0
2349,129,128,127,130,126,129,129,129,0
2353,130,128,125,127,124,128,128,128,0
2356,126,127,131,131,132,127,129,127,0
2359,129,127,127,126,128,128,129,128,0
2363,128,128,126,127,128,128,127,129,0
2367,128,129,125,125,123,128,127,127,0
2370,127,125,128,124,123,125,127,127,0
2373,127,127,128,126,129,130,128,129,0
2376,130,129,127,127,127,128,128,128,0
2380,129,128,131,129,125,125,125,125,0
2383,126,128,128,123,126,125,129,128,0
2386,127,127,129,129,129,130,129,128,0
2390,129,128,126,127,129,129,129,128,0
2395,129,128,125,127,124,129,127,128,0
2398,128,127,128,125,122,127,126,125,0
2401,125,128,126,127,126,128,126,129,0
2404,130,128,128,129,130,128,127,129,0
2407,128,128,126,127,126,127,128,127,0
2411,127,126,129,129,132,125,129,127,0
2414,128,127,129,129,125,129,127,128,0
2420,125,128,130,128,127,128,128,128,0
2424,127,128,126,125,126,128,126,127,0
2427,129,127,128,126,122,126,129,127,0
2430,131,126,129,129,131,126,129,129,0
2433,127,129,126,127,129,129,127,128,0
2436,127,127,128,126,127,129,127,127,0
2444,125,127,127,125,125,128,126,126,0
2447,119,126,127,125,125,128,126,129,0
2452,127,128,128,129,131,128,127,128,0
2455,129,128,126,129,126,126,127,128,0
2458,123,127,127,123,123,125,129,127,0
2462,128,127,128,128,132,125,126,128,0
2465,129,128,128,128,128,129,127,128,0
2468,131,128,128,127,129,129,127,126,0
2472,123,128,128,126,125,124,127,127,0
2475,129,127,130,131,132,126,126,126,0
2479,129,129,127,127,128,128,128,129,0
2482,127,128,128,127,127,128,127,127,0
2486,128,125,129,126,122,126,126,125,0
2488,124,126,130,130,131,125,126,126,0
2491,129,128,128,127,127,129,131,129,0
2495,130,127,127,125,129,129,127,128,0
2499,125,128,126,125,124,126,126,126,0
2502,125,127,128,128,135,126,126,126,0
2506,129,129,129,129,129,128,129,129,0
2509,127,128,129,128,126,128,127,128,0
2512,128,127,130,128,124,127,126,126,0
2515,127,127,131,130,132,126,126,125,0
2518,129,128,126,127,126,128,129,129,0
2521,126,129,128,128,128,128,129,128,0
2525,126,126,126,127,125,128,126,126,0
2528,128,125,127,128,129,125,126,127,0
2533,126,128,127,127,128,129,128,129,0
2539,129,129,129,129,127,128,126,127,0
2543,126,127,127,128,126,128,126,126,0
2546,126,126,127,125,123,129,128,128,0
2549,130,129,129,128,127,129,127,128,0
2552,129,127,128,128,128,129,127,127,0
2555,128,127,128,126,125,128,126,126,0
2559,126,126,129,130,138,126,131,128,0
2562,128,127,127,128,128,129,127,128,0
2565,129,128,127,129,128,129,128,129,0
2568,128,128,123,122,123,126,127,128,0
2571,127,126,127,125,123,128,127,127,0
2575,131,128,126,127,128,129,129,129,0
2579,127,130,126,128,130,129,128,129,0
2582,128,128,127,127,124,128,125,125,0
2585,126,127,129,128,137,125,129,128,0
2587,127,128,130,130,129,130,130,129,0
2590,128,128,128,127,131,129,129,129,0
2593,126,127,127,127,124,129,128,127,0
2596,127,127,128,130,133,126,130,128,0
2599,126,127,129,128,124,129,130,129,0
2602,126,128,126,128,126,129,128,128,0
2606,127,128,128,128,124,126,126,125,0
2609,128,126,127,128,127,125,127,127,0
2612,126,127,127,127,126,129,126,129,0
2615,130,129,127,127,127,128,127,127,0
2619,129,128,128,127,127,128,126,128,0
2622,128,127,127,127,122,125,126,127,0
2626,131,127,127,127,128,129,127,129,0
2630,125,130,129,130,128,128,127,128,0
2636,126,129,126,127,129,127,127,127,0
2643,127,127,129,132,133,127,130,127,0
2648,131,126,131,125,133,127,126,129,0
2651,128,128,127,125,131,130,128,128,0
2655,129,129,125,128,125,129,125,125,0
2659,127,127,126,125,122,126,126,125,0
2663,125,127,127,127,125,129,127,128,0
2666,128,129,128,129,128,129,126,128,0
2669,127,127,128,128,126,129,126,127,0
2672,126,127,127,126,122,126,127,127,0
2675,128,126,131,131,132,126,126,125,0
2679,127,128,127,128,128,128,127,129,0
2684,129,128,127,126,125,128,125,127,0
2687,129,128,130,127,123,126,129,128,0
2691,126,127,130,129,134,126,126,126,0
2695,129,128,127,128,128,129,129,129,0
2700,129,128,127,127,124,128,125,127,0
2703,131,128,127,125,124,125,123,127,0
2707,127,126,130,130,131,126,127,126,0
2710,128,129,129,127,127,130,127,128,0
2713,127,128,127,127,128,130,128,128,0
2716,128,128,128,128,126,124,125,126,0
2720,125,128,132,129,132,126,128,126,0
2723,129,127,126,126,128,129,127,129,0
2726,127,128,127,126,127,129,127,128,0
2730,128,128,130,129,126,124,124,126,0
2733,126,128,127,126,124,129,127,128,0
2737,132,128,127,127,127,128,129,130,0
2751,127,129,126,127,126,128,129,128,0
2756,128,126,127,127,124,126,127,125,0
2763,127,127,130,129,130,125,128,128,0
2768,128,127,130,125,129,130,128,129,0
2774,128,128,126,127,128,130,128,128,0
2777,129,127,127,127,123,127,126,126,0
2780,123,124,128,127,123,128,127,128,0
2784,130,127,128,125,127,128,127,127,0
2787,128,128,129,129,131,128,127,128,0
2790,128,127,128,128,126,124,125,127,0
2795,125,126,129,129,130,126,127,128,0
2798,129,127,129,130,127,129,126,129,0
2802,130,128,130,126,130,129,130,129,0
2805,128,128,123,128,124,128,126,127,0
2808,127,127,128,125,122,125,127,128,0
2812,127,127,130,130,133,125,130,129,0
2815,129,129,125,127,129,130,129,129,0
2818,127,128,125,125,124,128,128,127,0
2822,128,127,128,128,122,125,127,127,0
2825,128,128,128,128,128,129,128,128,0
2829,126,128,128,128,129,129,129,128,0
2832,128,128,127,127,124,128,126,125,0
2836,127,126,128,125,130,126,135,128,0
2839,127,127,128,131,127,129,130,129,0
2842,129,128,126,127,129,130,128,128,0
2846,129,127,127,126,127,128,125,125,0
2849,127,127,128,129,131,126,129,127,0
2853,127,127,128,130,128,130,129,129,0
2856,128,128,126,129,128,128,128,129,0
2858,129,129,127,126,126,129,126,126,0
2863,128,127,128,125,123,125,125,127,0
2866,127,126,127,124,128,129,128,128,0
2869,128,128,125,127,129,129,129,129,0
2872,129,128,129,129,128,128,128,128,0
2877,127,127,129,128,124,125,129,127,0
2882,127,127,130,130,133,126,126,129,0
2885,130,127,129,128,126,129,129,128,0
2889,130,127,127,126,125,127,126,127,0
2892,129,124,126,128,122,125,127,128,0
2895,128,128,127,129,133,126,127,129,0
2898,129,129,126,126,129,130,129,130,0
2901,128,128,126,127,125,128,126,127,0
2905,130,127,129,125,124,126,126,125,0
2908,126,127,127,126,123,128,128,129,0
2912,129,129,129,132,131,129,128,129,0
2915,127,128,127,127,125,126,130,126,0
2918,130,127,127,126,122,126,128,127,0
2921,127,127,131,129,132,126,127,125,0
2924,128,129,126,127,128,128,129,128,0
2927,129,127,126,127,129,128,128,128,0
2930,126,127,128,124,124,128,127,125,0
2933,126,128,126,127,126,129,128,127,0
2936,127,129,126,129,130,129,129,129,0
2940,128,128,127,128,125,128,128,127,0
2943,129,127,126,127,124,126,127,127,0
2946,126,127,128,128,134,127,128,128,0
2950,126,128,126,126,128,130,129,130,0
2954,128,128,125,126,127,128,127,128,0
2957,131,128,128,126,124,124,128,127,0
2960,126,127,131,131,131,126,128,127,0
2964,123,126,126,126,128,130,128,129,0
2967,129,128,125,127,129,129,128,128,0
2970,132,126,127,127,121,126,127,128,0
2973,121,127,132,128,131,125,125,127,0
2978,125,128,125,123,127,129,129,128,0
2983,127,128,126,125,128,130,127,127,0
2987,129,127,128,126,125,125,125,124,0
2990,126,126,129,129,131,126,128,128,0
2993,127,129,127,126,128,129,129,128,0
2995,126,128,129,129,125,129,129,128,0
2999,128,127,126,125,125,129,127,127,0
3003,128,128,127,125,123,127,125,127,0
3005,124,128,128,126,129,128,128,128,0
3008,127,129,126,129,130,128,128,129,0
3011,127,127,128,126,126,124,125,127,0
3014,127,126,128,129,132,125,130,128,0
3018,127,128,129,130,127,129,126,129,0
3021,130,128,132,129,126,129,128,128,0
3024,129,127,125,124,125,129,128,127,0
3027,125,127,127,125,123,125,126,126,0
3030,128,126,129,130,126,128,126,128,0
3034,129,128,128,127,129,129,129,127,0
3037,128,128,126,127,129,127,126,126,0
3040,127,128,129,130,130,125,129,128,0
3049,126,128,128,129,126,129,127,128,0
3054,127,129,127,127,129,129,128,128,0
3058,129,128,129,126,125,128,126,126,0
3063,124,127,128,126,122,125,127,127,0
3067,128,127,127,125,127,129,128,129,0
3070,130,128,127,128,128,129,128,128,0
3074,128,128,127,128,125,128,125,126,0
3077,126,125,129,128,123,127,126,128,0
3081,129,126,132,131,133,125,129,128,0
3084,129,129,125,117,130,129,128,128,0
3089,129,129,128,130,125,129,125,126,0
3093,125,127,126,128,123,126,126,127,0
3097,123,128,127,125,126,128,127,129,0
3100,130,128,127,128,128,129,128,129,0
3104,130,128,128,128,127,127,127,126,0
3107,128,127,127,127,129,125,130,127,0
3110,126,127,128,129,131,126,128,129,0
3114,130,128,126,128,127,128,129,129,0
3116,127,127,127,126,128,129,128,127,0
3119,124,127,127,129,123,129,129,128,0
3125,129,126,128,128,130,125,129,129,0
3129,128,129,125,127,129,130,127,128,0
3132,130,128,127,128,126,129,126,126,0
3135,127,127,126,125,124,123,128,126,0
3138,128,127,130,130,132,126,127,126,0
3143,129,128,128,127,129,130,129,129,0
3146,128,129,127,127,128,129,128,127,0
3150,127,128,126,127,124,128,126,125,0
3153,125,127,129,131,132,125,128,125,0
3156,128,129,125,128,130,130,130,129,0
3160,129,129,125,126,129,129,128,128,0
3163,129,128,126,127,124,127,126,126,0
3183,123,126,127,126,124,129,128,128,0
3187,129,128,128,131,128,128,127,129,0
3190,126,128,127,128,127,128,128,128,0
3194,126,127,126,129,125,127,125,125,0
3197,126,127,128,131,135,126,128,127,0
3200,129,127,126,126,127,129,128,129,0
3204,130,129,125,126,127,128,127,128,0
3207,127,128,127,126,125,128,127,124,0
3210,125,127,127,127,134,126,130,127,0
3216,128,128,127,127,127,129,129,130,0
3220,127,129,126,128,129,129,130,128,0
3224,127,128,127,126,126,127,127,126,0
3227,125,127,129,130,133,126,130,128,0
3230,126,128,127,126,126,129,128,129,0
3234,130,128,128,128,129,129,128,129,0
3237,128,128,128,126,122,126,126,127,0
3240,128,127,130,124,133,126,129,128,0
3243,127,127,128,131,127,130,128,129,0
3247,130,128,126,127,128,128,129,129,0
3258,129,128,126,127,122,126,125,127,0
3262,130,127,129,125,122,127,128,127,0
3267,128,128,125,126,130,128,129,128,0
3270,127,128,126,128,131,128,128,127,0
3274,128,128,128,128,124,124,125,127,0
3277,124,127,128,130,131,125,128,128,0
3280,128,127,129,130,127,129,129,129,0
3284,128,128,127,126,127,128,129,128,0
3287,129,128,128,125,126,126,125,125,0
3291,127,125,127,125,123,126,129,127,0
3295,130,126,130,131,125,129,127,129,0
3298,130,129,128,126,128,129,129,128,0
3301,128,128,126,127,124,128,128,127,0
3305,128,128,129,128,134,124,131,128,0
3308,128,128,129,130,128,129,130,128,0
3311,127,129,127,127,128,129,129,129,0
3315,128,128,127,129,126,129,128,128,0
3318,128,127,130,128,129,125,130,127,0
3323,127,126,130,130,124,129,128,128,0
3326,129,129,127,124,127,129,129,128,0
3331,130,128,124,126,129,129,125,126,0
3337,126,129,129,126,123,127,127,127,0
3341,125,127,127,128,125,129,128,129,0
3347,128,128,128,129,129,128,126,128,0
3351,127,127,130,131,129,127,126,125,0
3355,124,127,126,125,126,124,130,127,0
3359,128,126,128,130,131,126,127,130,0
3362,129,128,127,127,126,129,128,128,0
3366,128,128,128,127,128,128,127,128,0
3369,125,127,126,124,125,127,126,127,0
3372,126,127,131,129,133,127,128,128,0
3376,131,128,126,126,128,129,126,127,0
3379,128,128,126,127,125,128,127,127,0
3382,129,128,131,126,123,122,127,126,0
3386,127,127,130,130,132,126,127,126,0
3389,129,129,129,128,129,129,127,128,0
3392,128,128,126,127,126,129,129,128,0
3395,129,128,127,125,123,126,125,127,0
3399,123,127,126,125,125,128,128,128,0
3401,128,128,126,128,129,128,130,129,0
3405,130,127,129,127,127,128,126,127,0
3408,129,128,127,125,126,128,127,126,0
3411,127,127,130,129,132,126,129,128,0
3414,128,127,128,128,129,128,127,127,0
3417,128,128,128,128,128,129,127,127,0
3431,126,127,127,125,126,127,127,124,0
3434,126,127,128,125,125,127,128,128,0
3439,129,128,128,128,130,129,128,128,0
3443,127,128,128,129,130,129,129,129,0
3447,126,127,126,126,127,124,128,127,0
3454,128,126,130,131,136,127,129,127,0
3458,127,125,126,126,128,129,126,129,0
3462,130,129,127,128,127,129,125,128,0
3501,129,127,129,128,125,128,127,127,0
3507,124,127,127,126,122,127,126,128,0
3511,128,128,128,128,129,128,127,129,0
3515,129,128,127,129,128,129,127,128,0
3519,129,128,128,126,124,127,126,128,0
3571,126,127,131,129,137,126,132,128,0
3582,128,128,129,129,127,130,128,129,0
3588,128,129,127,127,126,128,126,127,0
3592,129,128,130,126,124,128,125,128,0
3595,129,126,128,130,133,126,129,128,0
3639,129,127,129,129,125,130,129,129,0
3650,127,128,131,130,130,129,129,128,0
3664,130,128,125,126,124,128,127,127,0
3674,128,127,126,124,125,125,130,128,0
3679,127,128,129,129,124,129,132,129,0
3684,126,129,127,127,128,128,129,127,0
3690,128,127,127,124,126,129,130,128,0
3694,124,128,127,124,122,125,129,128,0
3697,126,128,129,128,126,129,128,128,0
3701,126,128,127,127,130,129,129,129,0
3704,128,128,127,127,124,126,127,127,0
3708,127,127,127,129,136,126,132,126,0
3711,130,126,129,131,130,126,127,129,0
3714,128,130,126,127,129,129,127,129,0
3718,128,128,126,128,126,128,127,128,0
3723,129,128,127,124,125,125,127,127,0
3728,126,127,128,129,127,128,125,127,0
3731,127,129,129,129,129,128,126,128,0
3735,127,128,128,126,127,129,124,126,0
3738,126,127,127,127,124,123,127,127,0
3741,127,127,128,129,129,124,124,128,0
3744,128,128,127,128,128,128,126,128,0
3748,128,128,128,126,129,129,126,127,0
3751,124,127,126,127,122,128,126,124,0
3754,127,126,127,126,126,129,126,128,0
3771,128,128,127,129,130,129,126,128,0
3776,126,128,126,126,130,128,127,128,0
3782,126,127,126,127,125,124,125,127,0
3787,122,127,129,130,141,126,127,126,0
3791,125,129,126,127,130,129,127,128,0
3841,128,128,128,131,127,129,127,127,0
3852,128,128,126,128,127,125,127,128,0
3862,127,128,131,131,131,126,127,127,0
3908,128,128,126,126,129,129,127,129,0
3917,130,128,126,123,126,128,125,127,0
3931,130,128,129,127,123,128,124,127,0
3937,124,126,129,126,124,129,125,127,0
3942,128,128,128,128,130,128,127,128,0
3947,127,127,128,130,130,129,128,128,0
3950,125,128,127,127,126,127,126,126,0
3961,125,127,130,130,136,126,129,128,0
3966,128,127,129,126,128,129,127,128,0
3974,129,128,126,126,124,128,128,126,0
3970,127,129,126,126,130,130,129,128,0
3980,127,127,129,131,134,126,129,127,0
3985,125,128,127,127,125,130,129,128,0
3989,128,128,125,127,127,129,127,128,0
3992,128,127,129,128,125,129,128,126,0
3997,125,127,127,126,123,127,127,128,0
4000,129,128,126,127,129,128,128,129,0
4003,129,128,126,127,131,129,130,128,0
4006,127,129,126,126,127,123,125,126,0
4010,126,127,127,126,130,125,130,129,0
4013,127,127,129,131,128,129,130,129,0
4016,127,128,126,128,130,129,129,129,0
4019,128,128,127,129,126,128,128,126,0
4023,127,126,129,128,130,127,128,128,0
4026,128,127,128,128,127,129,130,129,0
4030,128,129,127,128,128,130,127,127,0
4033,129,128,130,128,127,127,125,126,0
4036,126,126,128,128,126,126,127,127,0
4039,129,127,127,130,128,129,127,128,0
4041,128,129,127,127,129,129,128,129,0
4044,129,127,126,127,126,129,128,128,0
4048,125,128,126,124,123,127,125,127,0
4051,128,128,127,127,125,128,126,128,0
4054,128,128,128,130,131,129,128,128,0
4056,128,128,126,126,127,129,127,128,0
4059,127,127,126,127,125,124,128,127,0
4063,127,127,129,131,130,126,127,128,0
4067,129,128,128,128,128,128,126,127,0
4071,129,128,128,126,127,129,128,127,0
4075,124,127,126,125,122,125,125,126,0
4078,126,127,127,127,125,128,126,127,0
4081,129,127,127,130,130,128,128,129,0
4108,127,128,125,126,125,128,127,128,0
4112,123,127,128,125,127,126,131,127,0
4117,130,127,129,130,134,125,128,128,0
4121,130,128,129,131,128,129,128,128,0
4124,129,128,126,127,126,129,127,127,0
4128,127,128,128,126,123,127,127,127,0
4179,127,127,129,130,131,126,126,128,0
4190,128,128,129,129,127,129,128,128,0
4197,127,128,129,127,127,127,125,125,0
4203,127,126,127,125,123,126,126,125,0
4209,125,127,127,125,125,130,129,128,0
4213,128,128,128,128,128,128,126,129,0
4216,129,127,129,129,130,126,125,126,0
4220,127,128,127,123,123,126,127,127,0
4223,126,127,130,131,133,126,128,127,0
4227,125,129,125,127,130,129,128,129,0
4230,129,129,126,128,125,129,127,127,0
4234,129,127,127,126,122,126,126,126,0
4238,127,126,129,130,133,125,127,125,0
4241,129,128,126,128,128,129,128,129,0
4245,128,129,127,127,127,129,127,128,0
4248,129,127,128,127,122,124,126,125,0
4251,126,126,128,126,124,125,126,127,0
4255,129,128,126,127,130,129,129,129,0
4261,127,128,126,129,130,129,128,128,0
4265,124,128,127,130,133,126,129,127,0
4269,127,127,128,128,133,126,129,127,0
4273,129,127,127,122,128,129,129,129,0
4278,127,128,126,128,127,129,127,127,0
4283,127,128,129,128,123,128,129,125,0
4288,127,127,128,126,123,127,126,128,0
4291,128,128,126,128,128,128,129,128,0
4295,128,127,127,127,131,127,127,127,0
4298,127,127,129,126,124,125,126,126,0
4301,123,126,127,129,131,125,132,128,0
4305,128,127,132,131,131,130,129,129,0
4308,128,129,128,128,128,128,127,127,0
4311,127,126,127,125,126,128,128,126,0
4314,126,127,128,125,124,128,127,125,0
4318,127,127,126,127,131,128,130,129,0
4321,127,129,126,128,130,128,129,130,0
4324,130,127,128,128,125,127,126,127,0
4328,128,127,129,132,139,126,130,127,0
4331,127,127,128,127,126,128,127,129,0
4335,128,128,130,127,127,129,127,129,0
4338,128,127,128,129,125,129,126,126,0
4340,128,127,130,128,128,125,130,128,0
4343,128,128,128,131,127,129,129,129,0
4346,127,128,126,128,128,129,127,128,0
4349,127,128,126,126,127,129,128,126,0
4352,127,126,127,127,121,128,127,127,0
4356,128,128,126,125,128,129,130,129,0
4359,128,129,126,128,130,129,130,128,0
4363,129,128,127,124,126,128,130,128,0
4366,126,127,127,129,124,125,130,128,0
4372,126,127,129,131,132,126,128,128,0
4377,127,128,130,129,127,128,128,128,0
4381,130,127,126,125,127,128,132,125,0
4384,126,127,127,126,124,125,130,127,0
4390,128,126,129,131,132,125,131,129,0
4394,128,129,127,126,129,129,129,129,0
4397,129,128,128,129,124,127,126,125,0
4400,128,127,127,124,122,127,126,125,0
4403,126,128,128,130,130,125,129,129,0
4406,128,128,126,126,130,130,128,128,0
4410,127,129,125,126,128,129,126,127,0
4414,129,127,127,126,123,126,126,126,0
4417,125,127,126,126,124,127,126,127,0
4420,128,128,129,130,127,128,126,129,0
4424,133,126,127,128,127,128,126,126,0
4428,126,128,129,132,132,125,129,127,0
4433,128,127,130,130,133,126,125,126,0
4437,132,128,127,127,128,128,126,128,0
4441,129,128,127,129,127,129,125,125,0
4445,126,128,127,126,124,127,127,125,0
4449,124,127,128,125,125,128,127,128,0
4453,129,128,128,129,129,128,128,129,0
4456,128,128,127,129,128,128,126,126,0
4459,127,128,128,131,130,126,126,127,0
4463,128,127,129,130,133,127,126,126,0
4466,126,128,126,131,126,129,128,128,0
4470,130,127,130,126,127,129,127,127,0
4474,128,128,125,124,126,129,127,125,0
4477,126,127,125,126,123,128,125,128,0
4481,128,128,128,126,128,129,129,130,0
4484,130,128,127,127,127,127,129,129,0
4488,131,127,126,127,125,123,128,128,0
4492,126,126,130,131,133,126,129,128,0
4495,126,128,122,125,129,130,128,128,0
4499,129,128,126,128,127,129,127,128,0
4503,129,128,128,127,125,127,127,125,0
4506,126,127,126,128,129,125,128,127,0
4510,128,125,130,130,127,130,128,129,0
4514,127,128,130,129,127,129,126,127,0
4519,128,127,130,130,124,129,126,128,0
4522,121,126,123,123,126,130,127,128,0
4526,126,129,125,129,131,128,129,129,0
4530,129,128,126,128,127,128,129,129,0
4533,128,127,126,127,126,128,127,126,0
4537,126,126,132,129,130,126,127,128,0
4539,127,128,126,128,132,129,126,128,0
4542,129,127,128,129,127,129,126,128,0
4545,128,128,126,125,126,128,126,128,0
4547,124,127,127,125,122,127,126,126,0
4550,127,128,127,127,125,127,126,128,0
4553,127,128,128,128,128,129,126,128,0
4556,130,126,128,126,125,123,126,127,0
4563,128,127,129,130,131,126,127,128,0
4566,128,129,129,130,133,124,129,129,0
4569,127,129,126,128,128,129,128,129,0
4573,130,127,127,127,123,125,127,127,0
4577,131,127,127,129,134,126,128,128,0
4580,126,128,128,127,129,129,127,128,0
4584,128,128,124,124,129,129,128,129,0
4587,128,128,130,130,126,124,125,126,0
4591,125,127,125,129,122,127,126,127,0
4594,126,128,130,126,125,128,127,129,0
4597,129,127,129,117,130,129,128,129,0
4602,126,129,123,130,127,129,126,128,0
4605,125,126,128,125,129,125,129,128,0
4608,129,127,130,131,133,125,126,127,0
4613,129,128,127,128,127,129,129,130,0
4617,130,128,126,126,126,128,127,128,0
4621,125,128,127,128,127,125,129,127,0
4630,127,126,129,130,126,129,128,129,0
4633,128,128,126,127,129,130,129,128,0
4636,128,127,125,125,128,129,127,128,0
4640,126,127,127,127,124,127,125,126,0
4643,125,126,128,126,124,129,128,129,0
4647,127,128,126,127,131,129,129,129,0
4650,128,128,126,127,127,128,129,128,0
4654,126,126,127,126,127,125,131,128,0
4657,128,127,130,130,132,126,128,127,0
4660,128,129,126,127,129,129,129,129,0
4663,129,128,127,128,125,128,126,127,0
4666,131,126,128,126,122,127,125,125,0
4671,126,125,127,125,123,130,126,129,0
4674,128,128,127,128,127,129,126,128,0
4678,130,128,127,127,125,127,125,126,0
4681,128,128,127,129,122,125,125,125,0
4685,123,127,132,131,132,125,130,128,0
4688,128,127,127,119,129,129,128,129,0
4691,130,128,124,126,130,129,130,128,0
4694,131,127,126,126,123,127,127,125,0
4697,126,128,127,125,126,128,128,128,0
4701,128,129,128,128,128,129,128,128,0
4707,127,128,128,129,130,128,129,128,0
4710,123,127,127,128,127,126,127,128,0
4714,128,126,130,131,135,126,129,127,0
4716,127,127,127,127,127,129,127,128,0
4719,129,128,130,129,128,129,128,128,0
4722,128,128,125,124,123,123,126,125,0
4725,128,126,130,133,134,126,128,128,0
4728,127,128,130,129,130,128,129,128,0
4732,128,129,127,127,126,129,131,127,0
4737,129,128,127,126,123,128,127,127,0
4743,126,125,127,123,122,128,127,127,0
4748,129,127,126,129,129,128,128,129,0
4751,129,128,127,126,129,128,127,128,0
4754,128,128,127,128,126,126,126,125,0
4757,129,128,128,130,131,125,130,128,0
4759,127,127,130,130,128,129,128,129,0
4762,128,129,127,128,129,129,129,128,0
4766,128,128,125,127,126,127,128,128,0
4770,124,127,128,126,123,127,128,128,0
4773,124,128,127,128,126,128,127,128,0
4777,128,128,129,131,129,128,127,127,0
4780,128,127,126,121,127,128,127,127,0
4783,125,125,132,131,133,127,129,128,0
4786,127,128,129,131,125,129,131,130,0
4789,129,128,126,127,127,129,129,128,0
4792,127,128,127,127,125,128,126,128,0
4796,129,126,127,125,123,127,127,127,0
4799,125,128,125,126,125,127,129,129,0
4801,129,128,127,129,128,129,127,128,0
4806,130,128,128,127,124,126,125,126,0
4809,127,127,128,131,137,126,130,128,0
4812,126,127,129,129,128,129,128,128,0
4816,129,129,127,127,129,129,129,128,0
4819,130,127,128,126,125,128,125,126,0
4822,127,128,127,124,122,125,129,123,0
4826,125,127,131,131,132,126,126,126,0
4829,130,127,128,127,129,130,129,128,0
4831,128,128,130,128,128,129,128,126,0
4834,124,128,124,123,127,123,127,127,0
4839,126,128,127,127,125,128,128,129,0
4844,130,128,129,128,126,128,127,128,0
4849,128,128,129,126,129,128,128,127,0
4853,127,127,127,129,124,127,127,126,0
4856,124,127,131,132,135,127,127,127,0
4858,124,128,126,126,129,129,128,129,0
4865,127,129,126,128,126,128,131,127,0
4868,125,125,127,128,124,128,129,127,0
4872,131,125,129,129,135,126,127,126,0
4878,130,129,127,126,129,129,128,128,0
4882,127,128,128,129,127,129,126,126,0
4886,127,125,128,124,124,127,126,126,0
4889,127,128,125,127,124,130,128,128,0
4893,130,128,127,129,131,128,127,128,0
4896,126,129,126,128,129,128,128,128,0
4899,125,127,127,126,123,126,128,126,0
4903,125,127,130,128,133,126,128,127,0
4907,126,127,127,128,129,129,127,129,0
4911,128,128,127,128,125,128,126,126,0
4914,129,127,129,127,123,122,127,126,0
4918,128,127,130,130,133,127,128,128,0
4921,125,128,126,126,131,130,129,128,0
4925,127,127,127,127,128,129,126,128,0
4928,128,127,126,125,126,128,127,125,0
4932,125,127,127,128,129,126,127,126,0
4935,123,128,126,125,130,130,128,130,0
4939,127,128,127,127,129,129,128,128,0
4942,126,128,125,125,125,128,126,128,0
4945,124,127,127,125,125,128,127,127,0
4949,130,127,127,129,130,129,129,128,0
4952,128,129,126,126,130,129,129,128,0
4956,128,128,128,128,128,124,125,126,0
4960,127,127,128,130,131,126,129,128,0
4964,128,127,128,128,127,129,129,129,0
4968,128,128,128,127,128,129,127,127,0
4973,126,127,128,126,126,128,130,126,0
4979,126,126,128,131,131,126,129,128,0
4983,127,127,125,125,128,130,127,129,0
4986,129,129,127,126,128,129,129,128,0
4989,127,128,127,128,126,129,127,127,0
4991,124,126,127,126,122,127,126,127,0
4996,128,127,127,124,127,128,126,128,0
4999,128,128,124,129,130,129,129,129,0
5002,127,129,126,127,126,128,127,125,0
5006,125,128,126,124,123,126,126,127,0
5009,122,127,128,132,134,126,127,129,0
5012,128,129,128,128,128,129,130,129,0
5016,129,127,129,128,126,128,128,127,0
5021,127,124,129,125,131,126,131,128,0
5024,128,127,130,131,127,129,129,130,0
5026,129,128,126,128,129,129,129,129,0
5031,128,128,126,126,128,128,127,127,0
5034,125,127,127,125,124,127,127,128,0
5038,127,128,130,131,131,125,128,129,0
5042,127,128,127,127,131,129,127,129,0
5046,129,128,127,128,127,129,127,126,0
5048,124,127,130,127,122,127,126,124,0
5053,129,127,128,125,126,128,127,127,0
5057,127,128,128,128,132,130,129,129,0
5060,128,129,125,125,126,127,128,128,0
5063,128,125,129,132,134,126,129,127,0
5067,128,127,129,129,133,126,126,129,0
5070,128,128,126,127,129,129,129,129,0
5073,128,128,127,127,129,129,129,128,0
5078,125,128,126,126,122,127,126,126,0
5084,124,126,126,128,124,129,128,128,0
5089,129,128,126,128,128,128,130,129,0
5093,129,129,128,128,126,128,126,126,0
5096,125,127,129,131,134,125,127,127,0
5100,126,127,128,130,133,126,127,127,0
5103,129,128,126,127,127,128,128,128,0
5107,128,128,127,128,129,129,128,128,0
5110,127,128,127,126,123,127,126,126,0
5114,127,126,127,126,124,128,127,128,0
5118,129,128,130,130,131,128,128,128,0
5121,128,128,127,129,130,127,129,127,0
5123,128,127,127,129,133,125,128,126,0
5127,126,127,129,128,133,126,129,127,0
5150,127,127,125,129,128,129,128,129,0
5198,128,128,125,127,129,129,129,128,0
5213,129,128,126,125,124,128,127,126,0
5217,123,127,127,125,122,126,126,128,0
5227,128,128,126,128,130,129,130,129,0
5238,129,128,126,129,129,129,130,128,0
5242,128,127,126,129,130,125,129,127,0
5245,127,126,128,129,133,126,130,128,0
5248,127,126,128,128,126,128,128,128,0
5252,129,128,126,126,128,128,127,127,0
5256,130,127,126,128,125,127,126,127,0
5259,128,127,130,125,122,127,127,126,0
5262,128,129,129,128,129,129,128,128,0
5266,128,128,127,124,130,128,129,128,0
5269,129,128,126,126,123,128,126,126,0
5272,126,127,129,130,137,126,132,128,0
5276,127,127,127,127,128,129,127,130,0
5279,127,128,127,127,127,128,127,128,0
5283,129,128,128,127,123,124,127,127,0
5287,126,126,129,130,133,126,129,128,0
5292,129,127,127,125,129,130,131,129,0
5297,128,129,126,127,127,129,131,128,0
5300,128,128,126,127,126,128,128,125,0
5303,126,127,128,126,123,128,127,127,0
5306,127,127,128,128,126,128,126,128,0
5310,128,128,126,128,128,129,129,128,0
5323,126,126,133,131,131,125,128,127,0
5317,129,129,126,127,127,127,129,127,0
5329,129,127,129,129,126,128,128,128,0
5336,130,128,126,126,129,129,129,129,0
5344,127,128,127,127,127,129,128,127,0
5348,123,127,128,129,127,125,128,127,0
5351,129,127,129,130,129,128,126,128,0
5357,128,128,128,129,131,128,128,128,0
5361,129,128,126,129,124,127,126,127,0
5364,130,128,127,126,121,126,126,126,0
5368,127,126,129,125,127,129,128,129,0
5371,129,129,128,127,128,128,126,128,0
5375,130,128,128,128,126,126,125,125,0
5378,126,126,127,126,122,124,126,127,0
5382,127,127,128,130,135,126,127,127,0
5385,129,128,125,128,128,128,129,129,0
5389,130,128,128,127,127,129,126,127,0
5392,128,127,128,130,131,125,128,127,0
5396,127,126,131,130,128,125,126,129,0
5399,129,128,127,125,127,129,128,130,0
5402,126,128,124,128,129,130,128,128,0
5406,128,128,126,126,122,128,126,126,0
5408,123,127,126,125,124,128,126,127,0
5412,131,127,128,129,128,129,127,128,0
5417,128,128,127,128,130,128,128,128,0
5420,128,127,127,129,129,125,128,127,0
5423,129,127,130,131,132,125,126,126,0
5426,128,128,127,128,127,128,129,127,0
5430,127,128,126,127,128,129,129,128,0
5433,131,127,128,127,123,128,126,126,0
5436,127,127,130,131,134,126,128,127,0
5440,123,128,129,127,128,129,128,128,0
5444,130,128,127,129,130,129,128,128,0
5447,128,127,127,126,121,126,125,126,0
5450,124,127,127,126,124,128,127,128,0
5453,129,128,128,128,128,129,127,128,0
5456,128,128,128,129,128,128,126,128,0
5459,129,128,128,128,129,125,129,127,0
5463,128,126,131,132,132,126,130,128,0
5466,128,126,129,128,131,129,127,128,0
5469,130,129,126,127,125,128,129,129,0
5472,128,128,127,125,126,128,128,126,0
5476,120,125,130,130,128,125,126,127,0
5479,125,128,126,126,128,129,128,128,0
5483,128,129,125,126,129,129,129,129,0
5486,127,129,126,127,123,128,129,124,0
5488,127,127,129,129,133,126,128,128,0
5491,128,126,129,125,127,129,127,128,0
5494,129,129,127,129,132,129,128,128,0
5498,130,127,126,127,125,128,126,126,0
5501,127,127,129,127,121,127,127,128,0
5505,127,128,128,128,126,128,127,128,0
5508,128,129,128,125,131,127,127,128,0
5513,126,128,127,129,128,125,127,125,0
5526,126,126,132,130,138,125,133,127,0
5530,129,126,127,132,125,130,128,129,0
5535,130,128,127,128,127,128,126,128,0
5538,130,127,128,127,125,124,125,125,0
5541,127,128,128,127,121,127,127,126,0
5544,127,128,127,127,129,128,128,129,0
5548,130,128,127,127,126,129,126,128,0
5551,129,127,129,129,127,126,126,127,0
5557,126,126,129,131,131,125,128,127,0
5560,128,127,131,132,132,125,128,128,0
5564,128,128,133,128,128,129,128,129,0
5567,129,128,126,127,128,129,127,128,0
5570,127,127,127,126,123,127,127,126,0
5573,126,127,127,126,126,129,127,128,0
5577,129,128,127,129,131,129,129,128,0
5580,128,128,127,127,127,126,127,128,0
5584,126,127,128,127,125,124,131,128,0
5587,128,127,130,130,133,126,126,128,0
5591,130,128,126,127,131,128,126,128,0
5594,129,128,126,127,124,127,126,128,0
5597,128,127,126,127,123,125,128,127,0
5600,129,127,130,131,132,126,128,128,0
5603,128,128,126,128,128,129,126,128,0
5605,129,129,126,127,126,129,127,128,0
5609,128,128,127,125,124,127,125,126,0
5613,127,127,130,131,130,126,126,128,0
5616,126,128,129,132,126,129,129,129,0
5618,128,129,127,128,125,128,127,127,0
5621,129,127,127,126,124,127,128,123,0
5626,127,127,130,129,131,126,126,128,0
5633,129,128,125,124,130,130,130,128,0
5636,129,129,126,129,129,128,128,127,0
5639,128,128,125,123,123,126,126,125,0
5642,125,127,127,126,124,127,126,126,0
5646,127,128,128,129,131,129,128,129,0
5649,128,128,128,127,131,126,128,127,0
5653,123,127,128,128,124,127,126,125,0
5656,125,126,129,130,132,126,128,127,0
5659,127,128,126,128,128,129,130,130,0
5662,128,129,126,127,126,127,129,129,0
5666,128,128,127,126,123,127,125,127,0
5669,127,127,130,130,130,126,129,129,0
5673,128,127,127,127,127,129,128,129,0
5676,130,128,128,128,125,128,126,127,0
5681,128,127,129,127,123,129,127,127,0
5685,126,127,127,125,124,128,128,128,0
5689,128,128,129,128,127,128,128,128,0
5693,129,127,128,129,125,128,128,128,0
5697,128,128,127,127,126,125,127,127,0
5700,127,126,131,130,131,126,130,128,0
5705,126,128,127,128,130,130,129,129,0
5710,131,128,126,128,133,128,127,127,0
5715,129,128,130,129,123,129,125,126,0
5719,129,125,127,125,123,126,126,126,0
5723,127,128,126,126,130,129,128,129,0
5726,127,129,125,126,127,128,128,129,0
5729,129,128,128,127,124,126,126,128,0
5733,127,127,129,131,130,125,128,127,0
5736,129,127,132,127,128,129,130,129,0
5740,129,129,125,127,127,130,129,128,0
5744,128,129,127,127,126,129,128,126,0
5749,128,127,130,122,123,127,126,127,0
5754,124,129,125,128,127,129,128,128,0
5757,128,129,127,126,126,128,129,129,0
5760,127,128,126,126,124,127,127,126,0
5764,129,127,129,131,136,125,128,127,0
5767,129,127,129,128,127,130,127,128,0
5770,128,128,127,127,128,129,127,128,0
5774,129,128,126,125,125,129,126,127,0
5777,127,127,129,130,130,126,128,128,0
5781,126,127,131,131,124,129,129,129,0
5784,130,127,127,128,127,129,129,129,0
5788,130,128,126,126,128,130,128,128,0
5791,128,127,126,124,121,127,126,125,0
5795,126,127,126,125,127,129,128,128,0
5799,128,129,127,129,128,127,126,128,0
5802,127,127,128,127,127,128,128,128,0
5806,124,127,126,125,124,127,126,127,0
5810,125,127,129,131,133,126,126,128,0
5813,128,129,127,128,130,129,128,129,0
5817,128,128,125,128,126,129,128,128,0
5827,130,128,128,127,123,124,130,126,0
5833,128,127,130,131,130,126,129,129,0
5836,129,129,126,127,130,129,129,129,0
5840,127,128,127,128,126,128,126,125,0
5843,127,127,128,126,122,127,126,126,0
5846,126,128,126,124,124,128,126,128,0
5849,129,128,127,129,128,128,127,128,0
5853,127,127,127,129,128,128,129,128,0
5856,129,126,130,130,133,126,128,127,0
5860,126,127,130,134,131,127,126,128,0
5864,129,128,128,127,129,128,128,128,0
5869,128,128,124,124,127,129,128,128,0
5873,130,128,127,125,122,124,126,124,0
5875,124,128,131,129,131,126,127,126,0
5878,128,128,126,127,126,128,126,128,0
5881,127,128,127,126,129,128,127,128,0
5884,126,128,126,125,124,127,126,126,0
5887,126,127,127,125,123,129,128,127,0
5890,127,128,124,128,130,129,129,129,0
5893,129,127,128,132,127,128,129,129,0
5896,125,127,126,125,124,127,126,126,0
5899,127,126,132,134,136,127,128,128,0
5902,129,127,127,126,127,128,128,129,0
5906,129,128,127,126,127,129,128,128,0
5908,129,128,127,126,123,129,125,124,0
5912,125,127,127,127,125,129,127,125,0
5916,126,129,125,128,129,128,129,129,0
5919,128,129,126,128,129,128,130,129,0
5922,128,128,127,127,123,126,127,126,0
5924,125,127,130,129,133,126,130,128,0
5927,127,127,131,129,132,128,128,129,0
5930,130,127,126,131,127,129,129,128,0
5933,129,128,128,127,125,125,126,128,0
5938,127,127,129,126,122,126,127,127,0
5940,130,128,126,128,130,130,129,129,0
5944,128,128,127,129,129,128,129,129,0
5947,129,127,129,126,124,128,126,126,0
5949,127,127,128,129,131,125,129,128,0
5954,127,127,129,132,130,128,127,129,0
5957,129,128,130,128,129,130,129,128,0
5961,128,128,127,126,125,129,130,126,0
5966,126,126,130,129,130,126,128,127,0
5971,127,127,129,125,126,129,128,129,0
5974,127,129,126,126,127,128,129,127,0
5977,128,128,128,129,128,131,127,127,0
5979,124,125,127,124,122,127,127,127,0
5982,122,128,126,125,127,128,129,129,0
5985,129,128,126,127,126,128,129,129,0
5988,127,128,128,130,130,125,125,126,0
5991,126,125,128,125,133,126,129,128,0
5995,127,127,131,129,128,128,127,128,0
5997,128,128,128,130,128,128,127,129,0
6000,127,128,127,126,126,129,127,127,0
6003,127,127,126,127,124,125,126,125,0
6006,125,127,127,126,127,128,128,129,0
6009,129,128,127,127,128,128,126,128,0
6012,130,128,128,128,128,127,126,126,0
6015,124,127,128,126,126,125,130,128,0
6019,127,127,130,131,134,125,129,129,0
6023,131,128,125,127,128,129,130,128,0
6027,129,129,126,127,124,129,126,127,0
6030,122,128,127,127,124,126,126,126,0
6033,124,128,129,130,134,126,128,126,0
6037,133,128,127,127,128,129,127,128,0
6040,128,128,127,126,127,129,127,126,0
6043,125,128,126,129,123,124,130,128,0
6046,126,127,128,131,133,126,128,128,0
6049,125,129,126,128,128,129,127,129,0
6052,130,127,127,127,127,128,126,127,0
6057,125,127,126,124,123,127,125,127,0
6062,127,127,129,130,132,125,126,128,0
6067,128,128,128,128,129,129,128,129,0
6070,127,128,127,125,129,128,127,128,0
6073,127,128,128,127,123,128,127,126,0
6077,126,127,126,129,132,126,126,125,0
6080,128,129,125,126,127,129,127,129,0
6083,127,129,128,127,125,129,128,128,0
6087,129,127,128,126,122,125,126,126,0
6091,126,127,127,125,122,126,126,128,0
6094,129,128,128,128,125,129,129,128,0
6097,129,128,128,129,128,129,128,128,0
6100,127,127,126,126,125,127,126,125,0
6102,125,126,129,131,134,126,128,128,0
6106,127,128,129,128,128,129,130,128,0
6109,129,128,128,128,127,128,128,128,0
6113,129,127,131,127,123,125,125,127,0
6119,125,127,129,129,133,126,129,128,0
6122,130,127,126,125,128,130,130,129,0
6130,129,128,126,128,128,128,126,128,0
6134,126,128,129,128,125,126,125,126,0
6137,126,125,127,124,123,127,126,128,0
6140,129,128,126,127,126,129,127,129,0
6144,129,128,128,129,130,127,127,128,0
6149,126,128,127,128,127,128,127,127,0
6153,125,127,127,128,134,125,132,127,0
6156,128,127,130,131,132,127,128,129,0
6159,129,128,127,127,127,130,127,128,0
6163,129,128,128,128,125,129,126,126,0
6166,127,126,127,125,121,127,126,126,0
6170,124,128,127,128,131,128,130,129,0
6174,127,129,125,128,128,128,127,127,0
6178,129,127,130,128,124,125,127,127,0
6183,121,127,128,128,134,126,130,128,0
6189,129,127,130,130,130,127,126,128,0
6192,129,128,130,127,127,128,126,128,0
6195,129,128,128,129,128,129,127,126,0
6198,123,127,127,127,122,126,128,128,0
6201,127,127,131,130,124,130,128,128,0
6205,129,128,127,128,127,129,127,128,0
6208,128,128,126,125,126,129,128,128,0
6212,130,127,126,125,123,124,129,128,0
6215,128,127,128,129,129,127,126,129,0
6218,129,128,128,128,129,129,127,129,0
6221,129,128,127,128,126,129,128,128,0
6225,131,127,128,128,121,127,126,126,0
6228,124,127,125,125,125,128,126,128,0
6231,128,129,128,129,128,128,127,128,0
6234,128,128,129,129,126,129,128,128,0
6237,127,127,129,130,128,125,130,128,0
6241,127,126,128,129,131,124,129,129,0
6245,129,128,126,128,130,129,128,128,0
6248,127,128,128,126,130,129,128,128,0
6251,128,126,126,126,124,124,129,127,0
6258,128,127,129,130,133,126,126,129,0
6261,128,128,128,130,129,129,129,129,0
6265,127,127,126,127,126,129,127,128,0
6268,130,128,128,126,122,128,127,125,0
6271,126,127,128,126,123,129,127,129,0
6275,129,128,127,128,130,127,126,128,0
6279,129,128,128,127,130,126,126,126,0
6282,125,128,128,127,124,127,127,127,0
6286,122,127,127,127,123,127,126,128,0
6293,129,129,129,130,131,129,129,129,0
6296,127,127,126,129,129,128,128,128,0
6300,125,128,128,124,125,127,127,127,0
6304,129,127,128,131,137,126,129,129,0
6309,129,125,128,128,129,130,129,129,0
6313,128,128,127,128,129,129,128,127,0
6315,128,126,126,128,123,124,128,127,0
6319,129,127,130,129,131,127,127,127,0
6321,124,129,125,124,127,130,128,128,0
6324,126,129,129,126,128,130,128,128,0
6327,128,128,129,128,123,127,128,123,0
6330,124,126,129,125,123,130,127,128,0
6334,129,128,128,130,128,128,127,128,0
6337,129,128,131,128,127,129,126,128,0
6340,128,127,125,125,127,124,127,127,0
6343,127,127,130,132,131,125,130,128,0
6347,126,128,128,127,126,128,128,129,0
6351,128,128,127,126,129,129,128,127,0
6354,129,127,126,125,125,128,127,127,0
6359,127,127,130,126,123,127,127,127,0
6363,130,128,127,128,127,129,128,129,0
6366,128,128,128,128,126,127,126,127,0
6381,126,127,129,131,129,126,129,128,0
6376,126,128,128,126,127,124,125,126,0
6385,129,126,129,127,125,129,130,130,0
6390,126,129,126,128,128,128,127,128,0
6394,128,128,126,126,126,129,128,126,0
6397,126,127,127,129,122,127,127,125,0
6401,128,126,128,127,126,128,126,128,0
6405,129,128,128,124,128,129,127,128,0
6408,129,128,127,128,123,126,127,127,0
6413,127,127,128,129,132,126,130,128,0
6416,127,128,128,129,129,129,129,129,0
6423,128,128,126,129,127,128,128,128,0
6429,129,128,127,125,126,125,124,125,0
6434,128,126,128,122,124,127,127,127,0
6438,125,128,129,129,128,128,127,128,0
6441,128,128,126,128,129,128,129,128,0
6445,126,128,126,129,127,129,129,128,0
6448,129,127,128,129,133,126,130,128,0
6452,128,127,128,130,132,126,127,128,0
6455,129,128,130,131,132,128,129,129,0
6458,129,127,125,127,125,128,126,128,0
6460,127,127,124,120,123,127,126,126,0
6463,122,127,129,129,128,129,128,129,0
6466,129,127,127,129,130,129,128,129,0
6469,130,127,129,126,127,128,126,126,0
6473,126,127,129,130,122,127,126,127,0
6476,127,127,129,128,132,126,125,128,0
6479,129,129,126,127,128,129,128,129,0
6482,130,128,128,126,127,127,125,125,0
6485,127,127,128,129,127,125,130,128,0
6488,130,128,129,127,133,126,126,128,0
6491,127,129,124,125,128,129,129,129,0
6494,129,128,126,128,128,128,126,127,0
6496,125,125,130,129,126,125,125,124,0
6500,126,127,126,125,122,127,127,129,0
6502,129,128,129,128,127,127,127,128,0
6507,129,127,128,127,130,128,128,126,0
6510,127,126,125,124,125,127,126,126,0
6513,126,127,128,130,132,126,129,128,0
6516,127,128,126,128,127,129,129,128,0
6519,130,127,133,128,130,128,128,128,0
6522,128,128,126,127,126,126,126,126,0
6525,124,127,130,129,136,126,127,127,0
6529,124,129,124,128,128,129,128,128,0
6531,127,128,128,129,127,129,126,127,0
6536,127,127,126,127,123,125,126,127,0
6541,122,127,127,125,124,127,126,127,0
6547,128,128,126,128,129,128,127,128,0
6550,128,129,127,128,128,128,126,128,0
6554,128,127,128,127,124,128,128,127,0
6560,126,126,131,131,132,125,129,128,0
6563,128,127,128,123,125,129,129,129,0
6566,129,128,124,127,127,128,126,127,0
6570,127,128,128,128,126,128,127,127,0
6574,126,127,127,125,122,125,127,127,0
6577,132,127,128,128,128,129,128,127,0
6580,128,128,128,128,129,128,128,129,0
6583,128,128,126,126,126,128,127,125,0
6586,126,126,131,131,135,126,130,127,0
6591,127,127,129,128,125,129,129,130,0
6594,127,128,127,128,127,128,126,127,0
6597,128,128,128,128,125,127,126,124,0
6600,127,126,131,130,132,126,128,127,0
6603,127,127,127,129,128,130,128,128,0
6608,129,128,128,127,128,130,128,129,0
6613,129,127,128,119,126,128,126,127,0
6617,125,127,130,129,123,126,126,127,0
6620,126,128,124,126,130,129,130,128,0
6624,127,129,126,128,130,129,127,129,0
6628,130,127,129,127,126,129,126,127,0
6631,128,126,128,125,124,126,128,127,0
6636,127,127,130,131,131,126,127,128,0
6640,128,128,128,128,127,129,128,129,0
6643,129,128,127,128,125,129,125,127,0
6646,130,127,132,131,130,126,128,128,0
6649,128,127,128,130,123,130,127,129,0
6656,129,129,126,127,127,128,129,129,0
6662,128,127,126,128,124,128,127,127,0
6666,128,127,128,125,125,125,128,128,0
6669,129,127,128,129,127,126,127,128,0
6673,127,129,128,129,127,127,127,128,0
6676,128,128,127,128,126,128,127,127,0
6679,132,127,127,122,123,126,127,126,0
6683,125,127,126,125,127,128,129,129,0
6686,129,128,126,129,131,129,129,129,0
6689,126,128,125,127,125,127,128,127,0
6693,128,127,127,127,124,126,127,127,0
6696,126,127,130,131,133,126,128,127,0
6699,124,128,126,127,127,129,129,129,0
6701,128,128,125,127,126,128,126,127,0
6704,127,127,128,125,122,125,127,127,0
6709,125,127,126,125,125,129,127,128,0
6712,129,129,127,129,130,129,129,129,0
6717,129,128,128,129,128,127,127,126,0
6720,127,127,128,127,124,127,128,127,0
6724,128,126,130,131,132,126,128,127,0
6732,124,127,127,128,129,129,128,128,0
6738,129,127,128,127,126,128,126,127,0
6742,128,127,127,125,125,127,126,126,0
6747,128,127,130,128,131,126,128,127,0
6750,128,127,127,128,128,129,129,129,0
6754,129,128,127,126,127,129,128,128,0
6757,129,127,128,125,123,122,126,123,0
6760,124,127,130,130,135,125,128,124,0
6763,131,129,128,127,127,128,130,129,0
6767,128,128,131,129,129,129,129,128,0
6770,128,128,125,127,125,129,130,126,0
6778,125,127,128,129,128,125,127,126,0
6784,129,128,129,129,126,129,128,129,0
6788,129,128,127,128,127,129,129,128,0
6791,129,128,128,127,124,125,126,126,0
6794,129,128,127,125,126,128,127,127,0
6797,126,128,126,129,129,128,128,128,0
6799,127,128,126,127,129,128,127,127,0
6803,127,127,128,127,127,124,126,126,0
6807,129,127,130,131,134,126,128,128,0
6810,128,127,128,127,126,130,129,129,0
6814,129,128,128,129,127,129,127,128,0
6817,129,127,127,127,123,128,126,124,0
6820,124,125,130,127,128,125,131,128,0
6823,128,127,127,126,129,130,129,129,0
6826,128,129,126,126,129,129,129,129,0
6830,130,128,128,126,125,126,125,127,0
6833,127,126,127,125,122,128,127,128,0
6836,128,128,129,129,129,130,128,128,0
6840,129,128,128,129,130,128,126,128,0
6843,129,128,128,127,125,128,125,128,0
6846,130,126,127,125,122,126,127,127,0
6850,126,127,129,131,131,127,128,129,0
6853,129,128,126,126,129,129,129,129,0
6856,129,129,125,127,126,128,128,127,0
6860,128,126,127,125,125,125,127,126,0
6863,126,128,126,127,126,128,129,129,0
6866,129,128,129,130,127,128,127,128,0
6871,127,128,130,129,125,127,129,125,0
6874,127,128,127,128,130,125,128,128,0
6877,128,127,130,129,124,129,127,128,0
6880,129,129,127,127,129,129,129,129,0
6886,128,128,126,127,126,129,128,128,0
6890,130,127,127,125,124,127,126,125,0
6894,127,128,127,126,127,129,128,129,0
6897,127,128,125,127,129,128,128,129,0
6900,128,128,126,127,127,128,127,127,0
6904,127,127,128,127,125,124,127,127,0
6909,128,127,132,131,134,125,127,129,0
6913,129,128,128,128,126,129,129,129,0
6916,130,128,126,127,125,128,125,126,0
6919,125,127,129,130,130,125,128,127,0
6923,128,127,129,130,133,125,128,129,0
6927,129,128,126,128,126,130,129,128,0
6930,128,127,126,127,127,129,128,127,0
6934,128,127,127,125,123,127,126,126,0
6937,126,128,127,125,126,127,126,127,0
6941,129,128,127,130,131,128,129,129,0
6944,129,127,129,125,127,128,126,128,0
6948,127,127,126,128,123,124,126,126,0
6955,128,125,131,132,132,125,129,125,0
6958,129,128,128,128,127,128,127,128,0
6963,128,127,127,126,128,129,126,127,0
6966,125,127,128,128,124,123,127,127,0
6970,127,127,128,130,133,126,129,127,0
6973,127,128,126,127,127,128,128,129,0
6977,128,128,127,128,129,129,127,128,0
6980,129,127,127,127,127,127,127,124,0
6983,126,125,128,126,124,129,126,127,0
6987,128,128,129,125,129,129,128,129,0
6990,128,129,126,128,126,129,127,128,0
6994,128,127,128,128,124,126,126,126,0
6997,125,127,131,129,133,126,130,128,0
7001,128,128,127,126,130,129,128,129,0
7008,130,128,126,127,126,128,126,128,0
7012,128,127,127,126,127,124,129,128,0
7016,127,127,128,130,132,125,129,127,0
7019,127,128,126,125,128,131,127,129,0
7022,128,128,127,126,129,129,129,128,0
7026,129,128,126,125,123,128,129,126,0
7034,121,127,128,129,126,124,127,127,0
7040,128,128,128,125,126,129,130,129,0
7043,129,128,126,127,126,128,127,127,0
7046,129,128,130,128,126,128,127,127,0
7049,121,125,128,124,124,128,127,128,0
7052,128,128,128,128,126,128,126,128,0
7056,129,129,127,129,129,127,127,128,0
7059,125,127,126,126,127,128,127,127,0
7062,121,128,126,127,124,125,129,128,0
7066,128,127,129,131,126,129,129,129,0
7069,129,129,127,129,129,129,128,129,0
7072,129,128,128,127,123,126,128,123,0
7076,124,127,128,126,130,125,128,127,0
7079,128,127,129,131,125,129,128,129,0
7082,129,128,127,125,129,129,128,128,0
7085,129,128,129,127,129,128,128,126,0
7087,128,127,127,125,124,125,126,128,0
7090,127,128,128,130,127,128,127,128,0
7093,129,128,129,128,129,128,126,126,0
7096,128,127,123,122,126,128,126,127,0
7099,131,126,128,127,125,126,128,126,0
7102,130,127,128,131,132,124,129,129,0
7107,129,129,126,128,130,128,128,128,0
7110,127,128,127,127,128,127,127,125,0
7115,126,127,129,126,128,125,128,127,0
7119,128,127,127,129,129,126,127,128,0
7124,129,128,128,128,130,130,130,129,0
7129,128,128,126,126,126,128,127,128,0
7136,127,127,131,130,128,124,128,129,0
7132,124,127,127,127,126,125,129,127,0
7139,129,128,127,127,130,128,128,128,0
7141,127,128,126,126,127,128,127,127,0
7147,130,128,127,126,122,126,126,125,0
7150,126,127,126,125,125,128,128,128,0
7155,129,128,127,128,128,129,126,128,0
7159,128,127,128,129,129,128,127,124,0
7162,126,127,126,128,129,126,129,127,0
7166,128,127,131,129,134,127,127,126,0
7169,129,129,128,130,126,129,128,128,0
7173,129,128,127,124,127,129,127,127,0
7176,127,128,125,128,126,126,128,127,0
7179,126,127,130,131,132,126,127,126,0
7182,130,128,129,133,129,130,130,130,0
7186,129,128,125,127,129,130,128,128,0
7189,129,127,126,126,122,126,126,127,0
7193,126,127,129,126,124,128,127,128,0
7196,128,128,127,126,130,129,129,129,0
7199,128,128,129,128,127,127,129,128,0
7202,128,127,127,126,126,128,126,125,0
7206,121,125,130,131,134,125,128,128,0
7209,128,128,127,127,130,130,130,130,0
7212,129,128,127,127,125,128,127,127,0
7216,129,128,127,127,127,125,129,127,0
7219,129,127,131,129,130,126,128,125,0
7222,130,128,129,128,127,128,130,128,0
7228,127,128,126,126,127,129,132,128,0
7233,128,128,126,122,124,127,128,126,0
7237,126,127,128,125,123,127,128,128,0
7240,127,127,125,129,127,128,130,128,0
7243,127,127,130,131,131,128,130,129,0
7246,127,127,123,124,125,128,128,127,0
7249,127,127,131,134,131,126,130,128,0
7253,127,127,127,130,126,129,129,129,0
7256,130,128,127,126,127,129,127,128,0
7259,129,128,127,128,126,129,128,127,0
7262,126,124,131,129,132,126,130,128,0
7265,128,128,127,128,128,128,131,129,0
7268,128,128,126,126,129,128,129,128,0
7271,129,128,127,126,124,127,125,126,0
7275,124,127,129,125,123,126,127,127,0
7279,128,128,127,127,127,129,128,129,0
7282,130,128,126,128,131,128,129,129,0
7285,125,128,126,127,125,127,126,127,0
7288,127,127,128,128,124,124,128,127,0
7291,128,127,131,129,134,126,124,128,0
7293,129,128,129,123,128,128,126,128,0
7297,128,128,127,128,127,129,127,126,0
7299,126,127,130,130,131,126,127,127,0
7302,128,127,130,130,124,129,129,128,0
7305,128,128,127,129,130,130,126,127,0
7308,129,127,126,126,126,128,126,127,0
7311,128,127,127,129,128,125,129,128,0
7315,127,127,128,130,129,127,125,128,0
7319,130,128,129,126,127,129,126,128,0
7323,128,128,127,126,127,129,126,126,0
7328,124,127,126,127,122,127,125,126,0
7331,124,127,127,126,125,126,124,127,0
7339,128,128,129,130,129,129,126,127,0
7347,127,128,129,128,129,128,126,127,0
7350,124,127,126,126,125,123,127,127,0
7354,127,127,130,131,131,125,128,128,0
7357,127,128,127,127,130,129,129,129,0
7361,128,127,126,127,128,129,128,128,0
7366,127,127,127,126,122,126,127,128,0
7370,128,127,131,131,130,125,128,127,0
7373,128,129,127,127,131,129,128,128,0
7376,128,128,128,126,128,129,130,128,0
7380,128,127,125,125,122,126,127,126,0
7383,126,128,128,126,123,127,129,129,0
7386,129,128,128,128,128,128,128,127,0
7390,127,128,127,128,126,127,126,126,0
7393,127,127,130,132,134,126,128,127,0
7397,127,127,129,131,135,126,127,126,0
7399,128,128,128,129,127,129,129,128,0
7402,129,128,126,126,129,129,129,128,0
7406,129,128,127,125,124,128,127,126,0
7409,127,127,130,129,131,126,125,126,0
7412,131,129,129,128,128,128,127,128,0
7415,127,127,127,126,127,128,127,127,0
7418,128,127,130,129,124,128,127,126,0
7421,123,128,126,129,125,129,127,128,0
7424,126,129,124,132,130,129,129,129,0
7428,127,129,125,126,130,128,128,128,0
7431,127,127,126,128,124,126,126,127,0
7435,127,126,129,128,132,126,129,127,0
7438,127,128,122,126,131,129,128,129,0
7441,128,129,127,130,130,129,129,128,0
7445,128,128,125,127,124,127,128,127,0
7449,126,127,127,128,129,126,128,129,0
7453,128,127,128,127,125,130,129,129,0
7456,129,128,127,127,129,129,130,128,0
7459,128,127,126,125,127,123,127,127,0
7463,130,127,128,125,123,127,127,127,0
7466,129,128,128,128,127,128,127,128,0
7469,129,128,130,132,130,128,128,128,0
7472,126,127,126,127,128,124,125,126,0
7475,128,127,131,131,137,126,131,127,0
7478,127,127,128,127,126,130,126,128,0
7481,129,128,127,127,127,129,127,128,0
7485,129,128,131,126,124,129,125,126,0
7488,128,127,127,125,126,125,127,127,0
7490,127,127,129,130,127,128,127,128,0
7493,128,128,127,127,129,128,129,128,0
7496,128,128,126,123,127,127,126,127,0
7499,130,128,126,121,123,128,127,128,0
7502,128,128,127,129,129,127,129,130,0
7505,129,128,127,129,127,129,126,127,0
7510,127,127,128,127,128,126,128,127,0
7513,124,127,127,125,128,126,132,127,0
7516,126,127,130,131,132,126,127,128,0
7519,129,129,127,128,127,130,126,127,0
7522,129,127,127,128,126,129,126,127,0
7526,127,128,126,123,123,126,128,127,0
7529,128,127,132,134,132,125,129,129,0
7533,128,129,127,124,129,130,130,129,0
7536,129,128,124,124,127,128,126,127,0
7540,129,127,128,126,123,127,127,126,0
7543,127,127,128,130,134,125,126,129,0
7547,128,128,127,127,128,129,127,128,0
7551,129,127,128,126,127,129,127,125,0
7557,125,126,130,127,124,127,126,126,0
7560,127,127,128,127,125,129,125,128,0
7563,130,128,129,128,129,128,127,128,0
7566,127,128,126,129,129,128,128,127,0
7569,126,127,125,123,124,124,129,127,0
7572,129,128,127,130,134,127,127,127,0
7576,129,128,128,129,129,129,127,129,0
7579,130,128,127,128,125,129,127,128,0
7582,129,127,130,127,125,129,127,126,0
7586,123,127,127,129,134,126,128,126,0
7589,130,128,125,126,128,129,128,129,0
7598,128,128,130,130,127,128,129,129,0
7601,126,127,125,123,124,127,127,124,0
7605,125,127,128,130,131,127,127,128,0
7667,124,128,125,125,132,129,129,128,0
7674,129,129,125,128,129,129,128,128,0
7677,127,127,126,126,125,127,126,126,0
7685,126,127,126,125,123,130,127,127,0
7693,126,128,126,128,128,128,129,129,0
7733,128,128,127,129,125,127,126,126,0
7743,128,127,130,125,124,127,127,126,0
7753,128,125,130,134,131,126,129,127,0
7758,127,128,122,140,128,130,129,130,0
7763,127,128,128,119,129,130,129,128,0
7768,128,128,127,120,126,126,127,128,0
7773,124,128,127,126,125,129,128,128,0
7777,126,128,125,127,130,129,130,129,0
7789,129,129,126,127,127,128,126,128,0
7795,128,128,128,127,123,125,125,126,0
7799,127,126,128,128,131,126,129,128,0
7803,129,127,127,128,126,129,128,128,0
7809,128,128,129,135,129,129,128,128,0
7812,128,127,130,128,124,128,127,127,0
7816,123,127,123,121,134,127,129,128,0
7819,127,127,127,129,126,130,127,129,0
7825,129,128,127,127,128,129,128,128,0
7829,130,128,128,126,127,128,127,128,0
7834,127,127,127,125,122,128,126,126,0
7838,126,128,126,126,127,128,127,129,0
7841,127,128,125,127,131,128,128,128,0
7845,128,128,126,126,124,127,126,127,0
7848,127,127,131,131,131,126,129,128,0
7855,128,128,129,130,125,130,127,128,0
7861,128,128,126,130,129,129,130,129,0
7865,129,128,125,125,127,129,128,125,0
7870,126,125,129,130,131,126,129,128,0
7876,128,127,129,129,130,128,128,128,0
7880,129,128,128,125,126,129,128,128,0
7884,129,128,127,126,128,130,127,127,0
7892,125,127,126,125,122,127,127,127,0
7895,126,127,126,127,128,129,129,128,0
7933,130,128,127,130,127,128,128,129,0
7942,130,128,130,128,124,125,125,126,0
7949,127,127,124,124,124,126,127,127,0
8004,122,127,130,129,133,125,127,126,0
8013,130,128,124,128,129,129,130,130,0
8018,130,128,129,129,126,125,126,126,0
8028,126,127,128,125,124,127,127,124,0
8034,124,127,127,130,136,126,128,126,0
8039,130,128,127,129,129,129,129,129,0
8043,129,128,127,126,125,127,127,127,0
8047,128,127,130,130,130,125,128,127,0
8051,129,127,132,130,130,126,129,128,0
8055,128,128,127,126,129,129,128,128,0
8061,128,128,128,128,126,127,126,126,0
8064,126,127,130,127,126,124,129,128,0
8071,129,127,128,131,132,127,126,129,0
8075,131,129,127,126,127,128,127,129,0
8079,128,128,126,127,127,128,126,127,0
8082,128,127,128,129,126,128,126,125,0
8086,125,126,128,125,123,128,127,127,0
8089,129,127,132,128,128,127,126,128,0
8093,128,128,127,131,130,129,127,128,0
8096,127,128,125,128,127,125,126,126,0
8102,125,127,129,129,135,127,128,126,0
8109,124,128,125,126,130,128,129,127,0
8113,128,128,128,127,128,128,127,127,0
8117,126,128,127,128,126,123,129,126,0
8121,129,127,130,129,133,126,128,124,0
8124,130,129,127,126,128,128,127,129,0
8128,130,128,128,126,128,128,127,127,0
8131,128,127,125,124,127,126,127,127,0
8134,126,127,127,125,124,127,127,127,0
8143,130,128,130,129,126,127,127,128,0
8139,127,129,125,127,127,128,129,129,0
8148,129,128,129,127,125,127,126,127,0
8153,125,126,129,130,132,126,130,129,0
8163,127,128,128,127,129,129,127,128,0
8169,129,128,128,129,130,128,127,128,0
8173,128,128,126,126,127,125,126,127,0
8179,127,127,128,125,125,127,125,128,0
8183,128,127,128,130,128,128,127,129,0
8187,128,128,127,129,129,129,129,129,0
8190,128,128,128,128,124,128,127,127,0
8201,130,127,131,123,133,126,129,128,0
8205,128,128,126,126,127,130,129,130,0
8209,129,129,125,128,129,129,128,128,0
8213,129,128,125,125,125,128,126,128,0
8217,128,127,128,123,124,124,127,127,0
8270,128,127,131,132,131,127,127,128,0
8280,129,129,126,126,129,129,131,129,0
8290,128,127,127,126,125,129,126,126,0
8296,124,127,128,125,123,127,125,128,0
8301,126,127,127,127,125,127,126,128,0
8305,129,127,128,126,130,128,128,129,0
8309,128,128,126,127,125,127,126,127,0
8313,124,126,127,128,125,127,127,127,0
8316,129,127,130,131,134,127,127,127,0
8326,130,128,127,129,128,129,127,128,0
8331,128,128,126,126,127,128,127,128,0
8335,125,127,128,128,132,126,129,127,0
8339,127,127,130,130,130,126,128,129,0
8344,128,128,126,127,127,128,128,129,0
8349,129,128,126,127,130,129,128,128,0
8353,125,127,126,127,123,124,126,127,0
8357,126,127,128,128,130,124,130,129,0
8360,129,129,127,126,130,129,128,129,0
8363,128,128,127,126,127,129,128,127,0
8367,126,127,126,127,123,125,126,126,0
8370,125,127,127,126,127,129,129,129,0
8373,129,128,128,128,128,129,127,128,0
8377,128,128,129,127,125,126,127,127,0
8380,127,127,127,128,123,127,126,125,0
8383,124,126,128,131,126,129,129,130,0
8386,128,129,128,126,129,128,129,129,0
8389,128,127,126,117,130,128,127,127,0
8393,129,127,125,128,124,127,128,128,0
8396,128,127,130,132,138,126,128,127,0
8400,125,128,127,128,126,128,130,129,0
8405,128,129,126,126,125,127,127,127,0
8408,131,128,126,126,124,128,128,127,0
8411,125,125,127,125,126,127,128,128,0
8414,128,128,126,129,126,128,129,129,0
8417,130,127,131,131,129,128,127,127,0
8419,126,128,124,128,125,125,127,126,0
8424,128,127,130,133,135,126,130,128,0
8427,128,125,127,128,129,129,129,128,0
8430,129,127,128,128,127,128,126,127,0
8434,125,127,128,129,127,126,128,126,0
8437,127,125,129,130,131,127,128,126,0
8440,128,128,127,130,128,130,127,129,0
8443,128,128,127,128,130,129,127,127,0
8447,128,127,127,131,125,130,126,125,0
8453,123,126,132,128,134,126,127,128,0
8458,125,129,118,124,132,129,127,130,0
8462,128,129,127,129,127,128,127,128,0
8465,128,128,127,126,126,129,127,127,0
8467,127,127,129,125,125,124,125,126,0
8470,127,127,126,128,130,129,129,129,0
8473,129,128,128,128,129,127,126,128,0
8476,128,127,127,129,126,127,125,126,0
8480,122,127,128,125,124,126,127,126,0
8483,125,127,127,127,131,127,128,129,0
8486,128,129,126,128,128,127,129,129,0
8489,129,127,128,127,124,125,128,126,0
8493,123,125,129,131,131,125,128,128,0
8496,129,127,131,132,131,127,127,129,0
8499,130,128,127,128,127,129,129,128,0
8502,129,127,127,127,123,129,127,126,0
8507,123,128,127,125,124,123,130,128,0
8511,128,127,129,130,125,130,128,129,0
8514,129,128,126,127,131,130,130,129,0
8517,129,128,127,127,123,126,127,128,0
8521,129,126,129,129,131,126,131,128,0
8524,130,127,129,131,126,130,130,129,0
8527,127,128,126,128,127,129,126,128,0
8530,130,128,126,125,126,129,127,127,0
8533,127,126,127,125,122,126,126,127,0
8536,127,127,125,126,126,128,128,128,0
8539,127,128,127,130,128,129,129,129,0
8543,128,128,126,127,127,127,125,127,0
8546,127,127,126,126,123,125,128,127,0
8549,128,127,131,132,131,124,129,129,0
8553,127,128,128,127,129,129,129,129,0
8558,129,129,124,127,129,129,126,127,0
8563,124,127,127,127,122,124,125,127,0
8568,127,127,130,128,133,126,127,129,0
8571,129,129,124,128,131,129,129,128,0
8575,128,128,125,128,126,129,126,127,0
8578,129,127,127,128,127,125,127,127,0
8581,127,127,130,130,132,125,125,128,0
8584,129,128,126,126,129,129,128,128,0
8587,127,128,129,131,125,128,125,127,0
8590,128,128,131,125,123,127,126,124,0
8593,124,128,124,125,126,129,128,129,0
8597,129,129,126,129,129,128,128,129,0
8599,129,128,129,129,129,128,126,125,0
8603,128,128,128,126,125,126,127,126,0
8607,128,127,129,130,134,126,126,127,0
8610,128,129,127,127,131,129,128,129,0
8613,130,128,128,128,129,127,126,127,0
8616,126,128,129,132,122,126,125,126,0
8621,124,127,129,126,133,127,128,127,0
8626,125,128,124,121,130,130,129,129,0
8630,127,128,125,127,126,128,125,127,0
8634,128,126,126,128,123,128,125,125,0
8638,125,126,132,129,130,125,127,128,0
8641,127,129,122,122,128,130,127,128,0
8644,129,128,128,131,130,129,127,128,0
8648,129,127,127,124,126,129,126,126,0
8652,124,125,130,128,134,126,129,128,0
8655,128,127,127,128,126,128,128,128,0
8659,128,127,127,126,130,129,128,128,0
8662,129,128,126,125,125,127,127,127,0
8668,126,127,127,125,124,126,125,127,0
8673,128,128,132,129,128,128,127,128,0
8676,127,128,126,128,129,129,129,129,0
8680,129,128,128,127,126,128,127,127,0
8684,124,127,129,130,134,126,128,128,0
8687,128,127,128,130,132,128,127,129,0
8690,128,128,128,128,131,130,128,129,0
8694,129,128,127,126,124,124,126,126,0
8697,129,127,128,124,126,126,130,128,0
8701,130,127,128,129,129,129,127,128,0
8706,129,128,129,129,128,129,126,128,0
8709,127,127,127,126,127,128,128,125,0
8712,125,127,128,130,133,126,129,127,0
8716,129,127,126,127,128,130,128,128,0
8719,130,128,128,128,128,129,128,127,0
8723,128,127,127,128,128,128,130,126,0
8726,123,127,131,126,129,126,130,127,0
8729,127,127,130,129,123,129,128,128,0
8733,130,128,126,129,129,130,128,128,0
8736,129,128,126,130,124,129,127,128,0
8739,126,127,130,128,123,128,127,127,0
8743,126,128,126,128,128,129,129,129,0
8746,129,129,127,128,127,127,128,128,0
8750,128,128,128,128,125,128,127,124,0
8753,125,127,128,124,123,123,128,128,0
8757,127,127,130,130,131,126,126,130,0
8760,128,129,127,127,130,128,129,128,0
8763,127,128,125,128,126,129,127,126,0
8766,125,126,129,129,126,126,129,128,0
8770,126,127,130,130,128,128,127,128,0
8775,129,128,128,128,128,129,128,129,0
8779,130,127,129,128,126,129,127,126,0
8784,124,127,127,124,122,127,126,125,0
8789,124,126,128,126,127,128,129,129,0
8796,129,128,126,128,129,129,127,128,0
8800,128,128,128,128,129,127,125,127,0
8803,128,126,129,128,130,126,132,128,0
8806,127,127,128,129,133,125,125,129,0
8809,129,129,125,126,128,129,128,128,0
8812,127,128,125,125,129,129,130,128,0
8816,130,128,127,129,122,125,126,126,0
8819,125,127,130,124,126,128,128,129,0
8823,129,128,125,124,129,128,129,129,0
8826,127,128,129,131,127,128,128,127,0
8830,129,127,125,125,125,126,126,127,0
8833,128,128,129,130,133,125,128,127,0
8836,125,128,126,128,130,129,130,129,0
8839,128,128,125,127,129,129,128,127,0
8843,125,128,126,125,124,128,127,127,0
8846,126,127,129,131,133,126,129,126,0
8849,127,128,127,126,129,130,131,129,0
8852,128,128,126,126,127,129,129,128,0
8855,125,127,126,125,125,128,126,126,0
8858,124,125,133,130,122,128,126,126,0
8861,129,128,124,124,130,129,128,129,0
8865,127,128,128,128,128,129,130,129,0
8868,129,128,127,129,129,125,125,127,0
8871,128,127,130,130,133,127,129,128,0
8876,126,128,126,126,127,129,128,129,0
8879,128,128,128,128,128,129,128,128,0
8881,127,127,127,127,123,128,126,127,0
8884,126,127,128,127,126,126,127,127,0
8888,129,127,130,129,126,129,128,129,0
8894,129,129,130,123,128,129,127,128,0
8900,127,128,125,126,127,128,127,125,0
8903,127,127,129,130,128,126,126,126,0
8907,127,126,127,127,129,130,128,128,0
8911,129,128,126,125,129,129,130,130,0
8914,130,128,128,127,124,126,125,126,0
8917,126,126,129,134,131,126,129,128,0
8929,127,127,128,127,127,130,127,128,0
8934,129,128,123,122,130,128,127,127,0
8936,129,127,126,128,126,129,129,127,0
8941,124,127,128,125,124,128,127,126,0
8945,127,128,126,128,128,128,126,128,0
8949,129,127,128,127,129,128,126,127,0
8951,128,127,127,127,127,128,128,127,0
8955,123,126,129,131,130,125,128,127,0
8958,130,127,129,129,124,129,127,128,0
8961,130,128,128,129,129,128,125,128,0
8965,129,127,131,130,124,126,126,126,0
8968,127,127,126,125,124,126,126,125,0
8973,125,127,128,129,127,130,129,129,0
8976,130,129,127,127,128,129,128,128,0
8980,130,128,128,127,125,127,125,126,0
8983,128,128,130,132,132,126,129,127,0
8986,129,127,132,131,130,124,130,129,0
8991,128,128,125,113,132,130,129,129,0
8995,128,128,125,129,126,129,125,125,0
8998,127,128,125,125,124,127,128,127,0
9002,125,128,127,127,126,125,126,128,0
9006,129,128,129,131,128,129,126,127,0
9009,128,129,128,129,127,128,128,127,0
9013,128,127,128,127,124,124,127,127,0
9018,127,126,129,124,133,126,127,126,0
9021,129,129,126,129,127,129,129,129,0
9025,129,128,127,127,126,129,127,126,0
9029,126,127,128,129,124,127,127,126,0
9035,129,127,130,130,131,125,126,127,0
9038,129,128,127,128,128,128,127,128,0
9041,128,127,127,126,131,128,128,125,0
9044,127,126,128,129,127,125,129,127,0
9047,129,127,130,129,130,126,126,128,0
9051,129,128,128,129,129,128,127,127,0
9055,128,128,130,125,128,129,127,127,0
9058,129,129,125,127,126,125,126,125,0
9062,125,127,129,129,133,126,127,126,0
9065,128,128,129,128,127,129,128,129,0
9068,129,128,127,130,128,129,126,127,0
9072,128,127,131,126,124,129,126,127,0
9075,125,127,128,128,122,125,126,126,0
9078,127,130,122,125,130,129,129,129,0
9082,130,128,127,127,124,127,128,129,0
9085,128,127,130,128,124,126,128,126,0
9088,123,127,129,130,131,127,128,128,0
9092,128,128,127,127,128,130,128,129,0
9095,130,128,126,128,127,129,127,127,0
9098,129,127,128,126,125,129,126,125,0
9101,124,126,128,129,135,127,129,128,0
9105,127,127,126,125,129,129,128,130,0
9109,128,128,128,126,129,129,128,127,0
9112,126,126,128,127,123,128,126,124,0
9115,124,127,128,129,133,127,129,128,0
9118,127,127,126,129,128,129,127,129,0
9121,129,128,128,127,129,129,128,129,0
9125,129,127,127,127,122,127,126,126,0
9128,126,127,126,125,123,127,127,126,0
9134,127,127,126,122,127,128,128,128,0
9138,129,129,127,132,129,129,128,129,0
9142,128,128,125,127,125,127,125,126,0
9145,127,127,128,130,133,126,130,128,0
9148,128,127,127,126,127,128,129,129,0
9152,127,128,126,127,130,128,129,129,0
9155,129,127,126,126,123,127,127,127,0
9158,130,126,128,128,131,126,129,128,0
9161,128,127,127,126,126,129,128,128,0
9165,128,128,129,129,128,129,127,127,0
9169,127,127,129,127,125,127,126,125,0
9172,127,126,129,122,121,126,128,127,0
9178,127,128,125,130,128,128,129,129,0
9181,129,128,129,129,127,128,129,128,0
9185,127,129,129,125,126,128,127,125,0
9188,126,127,124,128,123,126,127,126,0
9191,127,128,127,128,127,128,127,127,0
9197,126,128,127,129,129,128,129,128,0
9200,129,128,127,128,124,125,126,126,0
9203,123,127,127,126,134,126,129,128,0
9208,130,126,129,129,132,126,127,130,0
9211,128,129,126,127,130,130,129,128,0
9215,129,128,126,126,126,128,126,125,0
9219,130,127,129,127,122,126,128,128,0
9225,126,128,129,127,133,126,126,127,0
9230,129,129,128,127,128,129,130,128,0
9234,129,128,126,127,130,129,128,128,0
9238,125,127,125,125,123,127,126,125,0
9241,126,128,128,126,126,125,130,128,0
9244,128,129,126,128,128,129,128,129,0
9248,129,128,127,127,126,127,125,125,0
9252,126,127,129,128,134,124,133,128,0
9256,128,127,132,130,129,125,127,127,0
9261,128,127,132,121,128,128,127,128,0
9269,129,129,121,123,128,129,130,129,0
9274,131,128,128,130,122,128,129,126,0
9278,123,126,128,129,130,125,127,127,0
9282,128,128,126,129,129,129,127,128,0
9285,128,127,127,128,126,129,126,128,0
9289,129,127,127,125,123,127,124,126,0
9292,128,126,132,132,135,126,128,128,0
9295,123,129,128,128,131,128,128,128,0
9298,129,128,128,125,128,129,127,127,0
9301,128,128,127,125,125,128,127,126,0
9305,123,126,128,129,131,125,129,128,0
9308,123,128,126,125,128,129,128,128,0
9311,128,128,127,130,127,128,128,129,0
9316,128,128,129,127,123,126,126,127,0
9319,122,127,128,124,123,127,127,128,0
9322,127,128,129,128,126,128,127,128,0
9326,128,128,129,126,129,128,129,128,0
9330,123,129,119,122,125,126,126,126,0
9334,127,127,129,132,133,125,127,127,0
9338,129,127,129,130,126,128,127,129,0
9341,129,128,127,126,127,128,126,127,0
9345,129,128,128,126,127,123,126,127,0
9348,128,127,131,132,132,126,129,127,0
9352,128,128,125,125,128,129,128,129,0
9355,130,128,126,129,125,128,128,128,0
9358,129,128,131,128,124,125,125,123,0
9360,124,125,128,130,133,126,128,127,0
9363,127,127,126,125,128,129,128,128,0
9367,128,128,128,131,131,129,128,128,0
9369,128,128,127,126,125,128,127,126,0
9375,126,127,127,127,129,125,130,128,0
9379,128,127,129,129,127,129,128,129,0
9382,126,128,132,128,126,129,127,127,0
9385,129,127,123,115,126,129,125,127,0
9387,130,128,128,132,122,128,128,128,0
9390,128,128,129,130,125,128,129,128,0
9393,126,128,130,130,128,128,126,127,0
9397,127,128,126,128,127,128,126,127,0
9400,125,127,128,126,124,124,129,127,0
9404,127,127,129,131,133,126,126,128,0
9408,129,128,127,127,127,129,125,127,0
9411,129,128,130,129,126,129,125,126,0
9415,124,127,127,126,129,126,130,128,0
9418,126,127,129,128,130,127,126,128,0
9420,129,129,127,126,129,129,129,128,0
9423,128,128,126,128,127,128,128,126,0
9426,127,128,127,125,123,127,126,125,0
9429,128,127,126,127,131,125,127,129,0
9431,130,128,126,124,130,130,128,129,0
9435,130,128,128,127,129,129,128,129,0
9438,125,126,126,121,123,126,128,127,0
9442,126,126,130,133,132,126,128,128,0
9445,128,129,127,127,130,130,129,129,0
9450,127,129,125,126,125,129,126,127,0
9454,131,128,127,125,122,127,126,127,0
9458,127,127,127,126,125,128,126,128,0
9461,127,128,127,127,131,129,129,129,0
9465,128,128,128,126,129,128,127,127,0
9468,125,126,126,129,129,125,130,128,0
9470,129,127,130,132,131,126,126,127,0
9475,128,128,126,127,126,128,128,128,0
9480,129,127,127,129,126,129,128,128,0
9484,128,127,127,124,124,128,127,123,0
9488,125,127,129,131,133,126,127,126,0
9493,129,128,127,126,129,129,129,129,0
9496,127,128,127,124,127,129,127,127,0
9499,128,127,128,122,124,127,126,127,0
9502,126,127,128,130,123,127,125,127,0
9506,124,127,129,125,130,129,129,129,0
9509,128,128,126,129,128,128,126,128,0
9511,128,127,129,129,129,125,130,127,0
9514,127,126,129,131,134,126,129,127,0
9517,128,127,124,127,129,129,129,129,0
9520,127,128,126,125,129,128,129,127,0
9524,128,127,126,126,123,127,125,125,0
9531,125,127,132,129,131,126,128,128,0
9536,127,128,125,130,130,128,128,128,0
9540,127,127,128,128,129,129,129,128,0
9544,127,128,122,119,124,128,126,127,0
9547,126,128,126,126,123,128,127,128,0
9550,126,128,126,130,128,129,129,129,0
9553,128,128,127,125,129,128,128,128,0
9557,128,128,127,126,123,126,125,126,0
9560,122,127,128,122,125,128,128,128,0
9563,126,128,128,130,128,129,127,129,0
9567,129,128,127,129,129,129,127,128,0
9570,128,127,127,130,132,125,130,127,0
9574,128,126,129,132,133,126,130,128,0
9576,127,127,129,132,127,129,128,129,0
9579,129,128,125,127,130,129,129,128,0
9582,126,128,128,125,127,127,127,127,0
9585,127,127,125,126,122,126,128,128,0
9588,130,128,129,129,125,126,127,129,0
9592,128,128,128,122,129,128,127,128,0
9598,126,127,125,131,128,128,128,125,0
9602,127,128,123,115,125,125,130,128,0
9605,128,127,126,127,133,125,129,130,0
9609,127,129,127,130,130,129,128,128,0
9613,128,128,126,127,127,128,127,127,0
9616,124,127,129,125,123,127,126,127,0
9619,128,127,127,127,126,127,127,129,0
9623,130,128,127,128,127,127,129,128,0
9626,130,128,128,125,124,127,126,126,0
9629,128,126,126,131,135,127,132,127,0
9633,128,126,131,130,130,126,127,129,0
9636,130,128,128,129,129,129,127,128,0
9639,127,127,134,130,126,130,127,126,0
9641,129,128,122,127,125,125,125,127,0
9644,127,128,127,126,129,129,129,128,0
9648,125,128,125,128,130,129,129,129,0
9652,130,128,126,127,123,125,128,127,0
9655,127,127,127,129,133,126,130,128,0
9659,130,127,128,130,133,126,126,127,0
9661,129,128,128,127,126,128,126,128,0
9664,130,127,132,122,126,127,126,127,0
9669,131,129,124,128,123,128,127,127,0
9672,126,128,130,126,124,127,126,127,0
9676,126,128,126,128,127,128,127,128,0
9681,128,128,128,127,125,127,125,125,0
9685,127,126,127,126,126,126,128,128,0
9688,129,127,130,132,133,127,126,127,0
9693,128,128,128,129,129,129,127,128,0
9698,129,128,126,128,128,129,126,126,0
9704,124,128,130,127,125,126,126,124,0
9707,127,127,128,130,134,126,126,126,0
9713,129,128,128,127,128,129,129,130,0
9718,128,128,126,127,127,129,128,128,0
9722,129,128,130,129,122,123,128,124,0
9725,122,128,125,130,127,129,129,126,0
9729,127,128,125,128,130,129,129,129,0
9732,128,129,125,127,128,129,128,128,0
9735,128,127,126,127,125,128,127,127,0
9739,126,127,130,127,134,126,130,128,0
9742,125,128,126,126,125,130,130,129,0
9745,128,129,127,132,124,127,126,126,0
9749,130,127,132,128,123,127,125,126,0
9752,126,128,120,123,128,124,127,128,0
9756,129,129,129,129,125,128,128,129,0
9760,128,128,128,128,127,129,128,129,0
9763,130,128,128,127,125,128,127,127,0
9766,126,126,129,131,133,126,129,129,0
9769,129,128,129,131,127,129,129,129,0
9771,130,128,126,128,126,129,126,128,0
9775,129,128,127,126,124,126,125,126,0
9778,126,127,127,129,132,126,130,128,0
9780,129,127,129,128,126,129,127,129,0
9783,129,128,126,127,128,129,128,128,0
9786,128,128,128,123,121,126,125,126,0
9788,130,128,126,125,123,124,128,127,0
9791,128,128,125,127,129,127,126,127,0
9794,127,128,129,131,131,129,128,129,0
9797,126,128,127,127,125,128,129,127,0
9801,130,126,128,130,132,126,130,128,0
9806,129,127,129,130,129,128,127,128,0
9811,130,128,126,120,130,130,130,129,0
9817,128,128,123,123,125,129,130,128,0
9820,130,128,126,128,124,127,126,127,0
9823,130,127,126,130,128,129,129,128,0
9826,127,129,126,127,126,128,130,128,0
9835,129,128,127,129,124,125,125,125,0
9839,128,127,128,126,124,125,127,126,0
9843,125,127,124,126,127,129,129,129,0
9847,128,128,127,129,128,128,127,128,0
9851,128,128,129,128,126,127,127,126,0
9855,127,127,129,131,131,126,127,126,0
9858,128,127,132,129,130,125,130,129,0
9861,128,128,124,123,130,130,129,129,0
9865,128,128,125,126,124,126,126,126,0
9868,130,128,127,125,126,127,127,125,0
9871,125,125,128,126,128,127,127,127,0
9875,127,129,125,127,127,127,128,129,0
9878,130,128,127,128,127,129,128,127,0
9881,125,127,126,125,124,124,126,127,0
9885,127,127,127,127,126,129,127,129,0
9887,129,129,128,132,127,128,127,129,0
9890,128,128,131,122,130,128,128,127,0
9896,128,127,122,117,136,128,130,128,0
9900,127,128,127,129,135,126,126,129,0
9903,129,128,131,132,127,130,128,129,0
9907,127,128,125,124,127,129,129,128,0
9910,124,127,127,127,127,127,127,126,0
9913,128,127,130,128,132,126,126,127,0
9917,128,128,126,129,131,128,128,128,0
9922,127,128,125,127,130,130,128,128,0
9927,127,127,127,126,124,127,127,127,0
9931,126,125,130,124,127,127,127,129,0
9938,128,129,126,129,125,127,128,129,0
9941,128,127,129,129,125,128,127,128,0
9945,129,128,128,126,123,126,128,127,0
9948,128,127,129,130,133,125,129,127,0
9951,126,128,127,127,126,128,126,128,0
9954,129,128,128,130,127,129,127,127,0
9958,125,127,128,130,125,127,127,126,0
9961,126,126,133,128,132,126,129,128,0
9964,127,128,121,127,130,130,128,129,0
9968,128,128,127,127,129,129,128,128,0
9971,129,127,127,126,124,128,125,125,0
9974,125,126,130,131,133,126,129,128,0
9978,128,127,130,124,126,129,126,128,0
9981,129,128,125,125,126,128,128,128,0
9984,129,128,128,127,124,127,127,126,0
9987,126,127,126,131,133,126,129,128,0
9990,127,126,126,128,132,129,127,128,0
9993,129,128,128,129,128,128,126,127,0
9996,128,127,127,129,127,126,126,128,0
9999,124,127,127,128,129,126,129,128,0
10003,127,127,126,125,128,129,128,128,0
10006,128,128,128,126,128,129,128,128,0
10009,128,128,128,124,123,127,125,126,0
10012,126,127,126,127,124,127,127,128,0
10019,128,129,127,128,128,128,126,128,0
10015,127,128,126,126,129,127,128,128,0
10022,126,127,133,130,126,128,128,127,0
10025,127,127,129,128,134,125,130,128,0
10030,128,127,125,124,126,129,128,129,0
10035,130,128,126,129,126,129,129,129,0
10041,128,129,126,126,124,126,127,128,0
10047,127,127,127,126,122,128,127,128,0
10053,127,128,127,127,126,128,127,127,0
10055,129,128,128,128,132,127,128,128,0
10058,127,128,127,130,127,127,128,126,0
10063,128,127,130,130,134,126,129,127,0
10067,128,127,130,132,131,125,128,129,0
10071,130,128,128,127,128,130,131,129,0
10074,128,127,127,126,125,127,127,127,0
10078,131,127,127,125,123,125,126,127,0
10082,129,128,127,125,128,129,129,129,0
10085,128,128,125,129,129,129,128,128,0
10088,129,128,128,129,125,126,125,126,0
10091,127,127,128,125,124,124,126,127,0
10096,127,127,128,132,134,127,128,129,0
10098,127,128,126,127,127,129,129,129,0
10102,128,128,126,126,128,128,128,127,0
10105,128,128,127,125,123,128,127,123,0
10107,125,127,125,126,123,125,125,127,0
10110,128,128,127,130,132,128,129,129,0
10113,129,128,128,127,126,129,128,128,0
10117,125,127,126,126,125,123,127,127,0
10120,127,127,128,130,134,126,127,128,0
10123,130,127,131,130,131,130,131,129,0
10127,128,127,131,129,129,129,129,128,0
10129,127,127,126,130,126,128,128,126,0
10138,125,127,132,129,132,128,128,128,0
10141,127,128,123,128,127,133,128,128,0
10146,130,128,128,127,125,132,127,128,0
10152,132,128,127,127,124,131,128,127,0
10157,126,126,128,128,129,128,126,127,0
10160,127,128,125,127,128,131,129,129,0
10164,129,129,126,127,126,131,126,128,0
10167,129,127,130,128,126,132,125,126,0
10170,125,127,130,130,125,131,127,128,0
10173,130,127,129,130,126,128,126,127,0
10177,127,128,129,126,128,128,126,128,0
10180,123,127,126,122,126,130,127,127,0
10183,126,127,129,134,135,126,129,128,0
10186,128,128,133,135,132,131,130,129,0
10190,128,128,127,129,126,129,127,128,0
10194,130,128,128,126,124,125,127,126,0
10198,127,126,127,128,129,125,128,127,0
10201,128,127,131,129,127,129,128,129,0
10204,128,128,125,126,132,128,129,128,0
10206,127,127,125,126,125,126,127,127,0
10210,130,126,129,129,130,125,128,128,0
10214,129,127,126,126,127,131,129,129,0
10218,128,128,126,128,128,127,126,127,0
10222,128,128,126,127,124,128,127,127,0
10225,128,125,130,126,122,126,126,127,0
10229,128,127,130,125,127,126,126,129,0
10232,128,128,125,130,130,128,128,128,0
10236,127,128,126,128,128,126,128,126,0
10239,124,126,127,125,124,127,126,127,0
10242,127,127,126,127,127,126,127,128,0
10246,130,128,129,129,126,127,126,128,0
10249,129,127,130,127,125,124,126,127,0
10254,126,127,129,129,134,124,134,128,0
10258,129,127,129,130,134,125,126,126,0
10262,130,128,129,128,130,129,128,129,0
10265,128,128,125,125,123,127,126,127,0
10269,129,127,127,129,125,123,128,127,0
10272,129,127,131,129,130,128,129,128,0
10276,129,129,127,126,132,128,129,129,0
10279,127,128,126,125,126,129,127,128,0
10282,121,128,128,127,128,125,131,128,0
10285,129,127,128,128,125,129,129,129,0
10288,127,129,125,126,128,129,128,130,0
10291,130,128,127,127,125,128,126,127,0
10294,128,127,127,125,123,125,126,126,0
10297,130,128,128,126,126,128,127,128,0
10302,126,128,127,127,131,128,129,128,0
10305,128,128,125,128,128,127,127,126,0
10308,123,127,127,126,124,126,128,127,0
10310,128,126,130,131,135,125,127,128,0
10313,127,128,128,130,128,128,129,128,0
10316,127,128,127,125,130,127,124,125,0
10320,126,127,125,123,127,126,126,125,0
10323,124,128,127,129,127,127,128,129,0
10326,125,128,127,129,131,128,129,130,0
10330,127,127,128,126,126,127,128,128,0
10333,129,127,126,128,124,124,129,127,0
10336,127,127,128,130,135,126,128,125,0
10340,126,128,126,128,128,129,130,129,0
10345,129,127,126,127,129,129,129,127,0
10348,125,126,125,127,125,124,127,126,0
10351,123,127,127,127,126,128,129,129,0
10354,129,128,127,126,130,128,128,129,0
10358,128,128,128,126,129,129,127,127,0
10362,125,128,125,123,124,124,126,125,0
10368,125,127,127,130,133,126,128,127,0
10373,128,127,128,129,131,129,130,129,0
10376,127,129,126,127,125,126,127,128,0
10379,128,127,128,126,127,125,127,128,0
10381,127,127,130,130,134,126,130,128,0
10385,126,127,126,127,126,128,127,128,0
10388,130,128,126,127,126,128,127,127,0
10391,128,127,127,126,123,126,127,127,0
10395,121,127,127,124,125,127,127,125,0
10398,126,127,129,131,129,128,127,127,0
10401,128,128,127,130,131,128,129,128,0
10404,126,128,124,126,127,127,128,126,0
10406,128,127,131,131,132,126,130,128,0
10411,127,128,128,125,128,128,131,130,0
10415,128,128,125,128,127,130,127,128,0
10418,129,127,126,128,126,128,126,127,0
10421,125,127,129,133,135,126,128,128,0
10424,129,127,129,127,131,129,127,128,0
10427,128,128,128,127,131,129,126,128,0
10430,128,127,127,125,126,129,129,127,0
10438,126,126,128,130,130,126,129,127,0
10442,128,127,125,127,130,129,128,128,0
10447,128,128,129,127,132,128,128,128,0
10450,128,127,129,127,127,128,130,125,0
10454,124,126,127,122,125,129,126,129,0
10457,129,128,131,130,124,128,126,128,0
10460,129,128,126,127,127,129,127,128,0
10463,128,128,128,126,124,126,127,126,0
10467,127,127,131,130,133,127,129,128,0
10473,127,127,127,125,125,129,127,127,0
10477,129,128,128,127,129,130,127,128,0
10480,128,128,126,128,126,129,128,128,0
10483,128,127,128,126,123,126,125,126,0
10487,129,126,128,126,127,128,127,128,0
10490,128,128,129,130,129,128,129,127,0
10493,127,128,126,124,124,128,126,126,0
10497,127,127,126,131,126,124,127,127,0
10500,129,127,128,129,133,127,127,128,0
10504,128,129,126,125,130,130,129,128,0
10507,128,128,127,127,129,128,130,126,0
10510,126,127,126,128,125,127,126,126,0
10514,127,128,128,127,127,125,127,128,0
10517,126,128,128,127,129,128,127,127,0
10520,127,128,127,127,129,127,128,126,0
10522,128,127,129,130,132,126,127,126,0
10526,129,127,131,131,131,125,127,128,0
10529,128,128,129,130,127,130,127,128,0
10532,129,128,128,127,126,129,126,126,0
10536,127,127,126,128,124,127,126,126,0
10539,126,127,132,125,126,127,127,127,0
10543,125,128,126,120,131,128,128,129,0
10546,126,128,125,132,126,128,128,127,0
10550,128,126,131,130,126,127,127,127,0
10554,122,127,127,125,124,127,126,128,0
10557,126,127,126,125,132,128,128,129,0
10560,129,128,124,129,129,129,129,128,0
10563,127,127,128,130,124,127,127,127,0
10566,128,127,130,130,133,126,128,128,0
10569,129,128,127,126,129,129,130,128,0
10572,127,128,126,127,128,129,129,128,0
10575,127,127,126,128,126,126,125,126,0
10581,127,127,127,125,126,129,127,127,0
10586,129,128,126,127,127,128,127,128,0
10592,130,128,129,127,129,127,127,127,0
10596,127,127,128,126,128,125,130,127,0
10600,128,127,128,131,133,126,129,129,0
10603,127,126,126,128,129,131,131,129,0
10606,129,129,125,125,128,128,128,128,0
10609,129,127,127,127,123,127,126,124,0
10612,126,127,129,124,125,128,127,128,0
10617,131,128,129,127,128,128,127,127,0
10620,128,128,129,126,132,127,127,128,0
10624,127,128,125,128,124,127,126,126,0
10627,126,126,129,132,136,125,130,128,0
10630,128,127,127,128,131,129,131,128,0
10633,127,127,126,131,128,130,128,130,0
10636,129,127,129,123,121,126,125,127,0
10639,127,128,123,125,126,129,127,128,0
10642,128,127,128,128,130,127,128,129,0
10646,127,129,125,128,128,129,128,129,0
10648,129,127,127,128,123,125,126,126,0
10652,128,127,129,130,133,126,129,128,0
10655,127,127,128,126,127,129,129,128,0
10657,128,129,126,128,127,129,128,129,0
10660,128,127,127,126,125,128,127,128,0
10664,121,128,126,124,124,127,127,128,0
10669,128,128,126,126,127,129,129,129,0
10672,126,128,127,128,130,127,126,128,0
10675,126,127,126,128,125,128,127,127,0
10678,126,127,128,130,131,125,128,128,0
10680,127,127,129,129,127,130,127,127,0
10683,129,128,128,126,128,129,127,127,0
10687,128,128,125,126,124,126,127,126,0
10691,129,126,129,131,131,126,128,128,0
10696,128,126,130,131,131,125,126,128,0
10702,129,129,126,126,131,130,129,129,0
10705,129,128,127,124,124,129,126,127,0
10708,128,128,127,126,122,128,128,127,0
10711,126,128,126,125,127,129,128,128,0
10715,129,128,125,128,129,128,128,128,0
10718,129,128,127,127,126,128,125,126,0
10720,121,127,127,127,128,125,129,127,0
10724,128,126,133,129,131,126,130,129,0
10728,127,128,125,129,130,129,129,129,0
10731,128,127,127,128,131,128,128,127,0
10738,126,127,126,125,124,128,126,126,0
10741,127,127,127,126,126,128,129,129,0
10744,127,129,126,129,131,129,129,129,0
10752,128,128,125,127,126,127,128,128,0
10756,129,127,127,129,134,125,128,128,0
10759,128,126,132,132,134,126,127,126,0
10763,132,128,127,124,128,129,127,128,0
10767,129,128,127,126,126,129,127,127,0
10770,125,128,126,125,122,125,127,127,0
10774,127,126,132,131,132,125,126,129,0
10777,129,129,128,128,127,129,128,129,0
10780,128,128,126,129,126,129,128,128,0
10783,131,128,127,127,122,125,125,126,0
10786,124,127,126,122,126,129,128,127,0
10789,127,128,124,127,131,128,128,129,0
10792,127,128,131,127,129,127,127,127,0
10795,124,127,125,126,125,128,126,124,0
10798,127,127,128,130,131,126,129,128,0
10802,127,127,130,128,127,129,130,129,0
10808,127,128,123,129,128,129,127,127,0
10813,128,128,126,128,126,128,126,126,0
10816,126,127,131,132,134,127,126,127,0
10819,125,128,126,126,129,129,128,130,0
10822,128,128,126,127,128,129,129,128,0
10825,126,127,126,128,126,128,128,125,0
10827,126,127,127,125,124,128,127,128,0
10830,127,129,124,126,127,127,129,129,0
10834,129,128,127,128,129,128,129,129,0
10837,128,127,127,127,124,125,125,126,0
10840,124,127,128,129,131,125,128,128,0
10843,129,128,128,125,126,129,130,129,0
10847,127,128,128,128,127,129,126,128,0
10850,128,127,126,126,125,128,127,127,0
10854,127,127,128,125,123,127,127,127,0
10857,128,128,129,128,128,129,127,128,0
10860,128,128,128,130,130,129,128,128,0
10864,127,127,132,127,126,128,126,126,0
10867,122,127,131,124,139,126,132,128,0
10869,126,127,127,125,128,129,128,128,0
10872,128,128,127,131,128,129,128,128,0
10876,128,128,126,125,126,129,128,127,0
10881,123,125,128,130,133,126,129,127,0
10883,126,127,126,126,127,130,129,129,0
10887,129,129,126,127,126,129,129,129,0
10890,129,128,126,126,123,128,125,127,0
10893,128,128,129,130,130,126,127,127,0
10896,128,127,130,130,126,128,127,127,0
10899,129,128,128,126,127,129,128,128,0
10903,128,128,127,127,124,126,125,127,0
10906,128,127,127,125,122,127,127,127,0
10912,127,128,128,126,127,128,127,128,0
10918,130,128,128,127,126,127,128,128,0
10921,128,127,131,130,126,129,126,127,0
10925,126,127,128,130,133,126,129,128,0
10927,126,127,129,130,131,125,130,130,0
10930,129,129,128,128,127,128,128,128,0
10933,129,128,124,125,127,130,127,127,0
10936,124,127,126,129,122,126,127,127,0
10939,127,127,131,129,133,126,128,128,0
10942,129,127,125,120,130,130,127,129,0
10945,129,128,127,129,125,129,125,126,0
10948,125,127,127,126,125,128,125,126,0
10951,127,128,127,126,125,129,128,128,0
10954,126,128,128,129,128,128,128,128,0
10957,126,128,129,129,130,126,126,125,0
10960,126,127,129,125,123,125,126,126,0
10969,129,126,130,125,134,126,129,127,0
10973,129,129,127,131,127,129,128,128,0
10976,128,128,128,127,130,128,129,128,0
10979,125,128,123,124,125,128,128,127,0
10983,129,127,129,130,132,126,127,127,0
10986,126,128,125,129,132,130,128,129,0
10988,128,128,127,126,129,129,128,127,0
10992,127,127,126,124,125,128,127,127,0
11004,126,127,126,126,124,129,128,128,0
11008,125,129,126,128,127,127,127,128,0
11014,128,128,127,127,128,127,128,128,0
11017,128,128,127,126,124,126,126,127,0
11021,123,127,130,130,131,126,129,128,0
11028,127,128,127,127,128,128,128,128,0
11032,128,128,126,127,126,128,128,128,0
11035,129,128,127,126,123,125,125,125,0
11044,126,127,129,130,135,126,127,127,0
11047,126,128,126,128,127,129,127,128,0
11051,128,128,129,130,124,128,128,127,0
11054,129,128,128,124,123,128,126,127,0
11058,126,126,127,127,124,126,126,127,0
11061,126,128,127,128,129,129,129,129,0
11064,127,128,126,124,128,128,130,129,0
11068,129,128,125,127,125,128,128,127,0
11071,122,127,129,132,135,126,132,127,0
11075,129,127,128,128,125,129,129,129,0
11080,128,128,128,126,127,128,128,128,0
11083,129,128,125,127,124,127,128,125,0
11086,127,127,128,130,131,126,128,128,0
11089,129,127,127,126,125,129,128,128,0
11092,129,128,127,127,127,129,127,128,0
11096,129,128,130,129,127,131,126,128,0
11100,128,127,129,129,130,127,128,128,0
11103,128,127,128,131,127,130,129,129,0
11106,128,128,127,126,126,129,127,128,0
11110,130,128,125,124,123,128,127,127,0
11113,128,128,127,126,123,127,127,127,0
11124,127,128,127,128,127,128,129,129,0
11128,130,128,128,129,127,128,125,128,0
11131,129,128,129,127,124,125,125,126,0
11134,127,127,127,125,124,126,134,128,0
11138,128,127,129,131,131,125,127,129,0
11141,129,128,127,128,126,129,126,127,0
11147,128,128,128,129,129,126,124,125,0
11151,127,127,129,127,133,127,128,127,0
11155,128,127,133,131,132,125,130,129,0
11157,128,129,124,128,129,128,129,128,0
11160,128,128,129,128,127,128,127,126,0
11163,125,127,126,127,122,128,126,127,0
11167,126,128,126,124,125,129,130,129,0
11169,127,129,128,130,129,129,129,129,0
11173,130,128,126,127,125,127,124,126,0
11176,126,128,130,127,123,127,125,126,0
11178,128,127,129,129,133,125,125,127,0
11182,128,129,128,128,128,129,127,129,0
11185,128,129,125,127,128,128,126,125,0
11197,126,127,129,128,124,124,127,127,0
11203,127,128,128,129,132,126,129,128,0
11206,128,129,127,126,128,129,128,128,0
11210,128,128,128,127,125,128,127,127,0
11213,124,127,128,127,123,127,129,127,0
11218,128,127,130,129,133,126,126,127,0
11221,128,128,129,127,127,128,129,128,0
11224,129,128,127,127,125,128,126,128,0
11234,129,128,129,128,127,125,127,126,0
11238,127,127,131,131,131,126,127,128,0
11242,128,128,127,129,129,128,128,128,0
11246,129,128,126,121,128,128,127,127,0
11249,129,128,123,128,123,126,127,125,0
11252,126,126,126,127,124,129,126,127,0
11257,129,128,126,127,126,128,126,128,0
11260,130,128,126,128,129,128,129,128,0
11266,129,127,129,127,130,125,129,128,0
11270,129,126,132,127,130,126,128,127,0
11273,123,128,133,133,128,130,127,129,0
11277,129,128,125,126,128,129,129,128,0
11280,128,128,125,125,124,126,127,125,0
11283,127,126,128,128,127,126,125,126,0
11286,122,128,128,127,126,128,129,128,0
11290,129,128,126,126,130,129,129,129,0
11295,128,128,125,126,127,127,127,127,0
11298,126,126,127,125,126,128,125,126,0
11301,127,128,127,128,126,129,126,129,0
11306,129,128,128,129,130,127,126,127,0
11309,125,127,129,129,125,127,125,126,0
11313,125,127,128,128,133,126,130,129,0
11316,128,127,129,129,132,128,127,128,0
11320,129,128,127,126,131,129,128,128,0
11324,128,128,126,126,127,128,127,124,0
11327,127,127,129,129,132,126,131,128,0
11330,127,127,126,125,128,129,128,129,0
11340,130,128,127,128,127,128,128,129,0
11345,128,127,126,123,127,127,127,126,0
11348,124,127,126,132,121,126,127,127,0
11351,126,128,128,125,125,128,126,128,0
11356,129,128,126,119,130,129,128,128,0
11359,127,128,127,130,126,128,127,127,0
11363,128,127,127,125,123,124,127,128,0
11366,127,127,129,131,134,125,129,129,0
11369,130,128,127,127,127,128,127,128,0
11373,128,128,129,125,126,128,127,127,0
11378,125,128,128,130,132,126,127,127,0
11386,129,127,128,129,125,130,129,130,0
11390,129,128,127,129,128,128,128,128,0
11394,129,127,128,129,126,128,128,125,0
11397,130,127,129,128,128,127,127,127,0
11400,129,127,128,127,124,129,128,129,0
11404,130,129,126,129,128,129,128,128,0
11407,129,127,126,126,125,129,129,128,0
11413,127,127,125,124,125,124,129,128,0
11417,127,127,128,131,130,125,126,128,0
11420,128,128,126,125,130,129,128,128,0
11451,129,128,127,128,126,129,127,125,0
11456,127,126,130,128,121,126,126,124,0
11462,126,128,127,126,127,126,126,128,0
11473,127,129,128,129,130,128,127,128,0
11494,128,127,126,129,129,128,129,126,0
11501,127,127,126,124,124,125,128,127,0
11508,128,126,129,128,133,126,128,128,0
11513,127,128,128,128,128,129,128,128,0
11517,127,128,128,126,125,128,125,126,0
11521,126,128,122,123,126,125,128,126,0
11524,127,126,132,131,131,126,126,129,0
11528,129,128,127,128,130,129,128,129,0
11532,130,128,127,127,127,128,130,129,0
11537,129,128,128,130,121,127,126,124,0
11543,124,126,131,124,122,128,128,128,0
11547,129,129,119,124,129,129,129,129,0
11551,129,129,126,130,129,128,126,126,0
11555,127,128,127,127,126,125,124,126,0
11559,125,127,130,130,136,125,128,129,0
11564,127,128,126,127,130,129,127,128,0
11569,129,128,127,128,128,129,128,128,0
11573,129,127,128,128,125,128,128,127,0
11576,127,126,129,130,132,127,128,128,0
11580,125,128,127,126,129,129,128,130,0
11583,128,128,126,126,129,129,129,129,0
11586,128,128,126,126,121,125,125,126,0
11590,126,128,127,125,124,127,126,126,0
11593,127,127,127,128,129,127,127,128,0
11596,129,128,127,126,129,128,129,128,0
11599,128,128,128,127,125,128,126,126,0
11603,126,125,130,128,133,127,130,128,0
11606,127,127,127,130,126,128,127,128,0
11609,128,128,129,129,127,128,127,128,0
11613,128,128,126,128,125,125,126,126,0
11616,125,127,129,131,132,126,130,129,0
11619,128,127,128,128,126,128,128,129,0
11622,129,129,128,127,127,129,126,129,0
11625,129,128,128,126,125,129,129,126,0
11628,127,126,130,129,131,126,128,127,0
11630,125,128,127,126,125,129,129,129,0
11633,127,129,127,127,129,129,127,129,0
11637,130,127,127,127,124,127,126,126,0
11643,126,127,127,124,123,127,128,127,0
11651,127,128,127,127,124,128,128,129,0
11656,129,128,129,128,127,129,126,128,0
11659,129,128,128,126,127,126,126,125,0
11663,127,127,127,128,133,125,134,128,0
11666,128,127,130,129,124,129,127,129,0
11670,127,128,128,128,127,128,126,128,0
11676,128,127,127,126,127,128,128,127,0
11679,124,127,126,126,122,127,126,126,0
11683,126,127,128,126,127,129,128,128,0
11686,129,128,127,128,128,127,127,128,0
11689,130,127,127,128,127,128,127,127,0
11693,122,127,131,130,131,126,128,128,0
11696,127,127,129,131,132,126,126,128,0
11699,129,128,127,128,129,128,126,128,0
11701,130,128,127,128,127,129,128,128,0
11706,125,127,127,125,123,126,126,125,0
11759,123,127,128,126,127,129,129,129,0
11768,128,128,126,127,129,129,129,129,0
11774,130,127,128,128,127,126,127,126,0
11779,126,127,127,127,125,125,132,127,0
11782,132,127,132,133,133,126,129,129,0
11786,130,129,124,124,133,129,130,129,0
11789,129,128,127,127,125,128,128,128,0
11793,131,126,128,125,124,122,128,127,0
11797,126,127,129,129,132,125,129,129,0
11800,128,128,127,128,128,128,129,128,0
11803,126,128,125,125,127,129,127,126,0
11807,130,126,129,127,122,128,128,127,0
11810,124,127,128,124,125,130,126,128,0
11825,129,128,125,130,131,129,129,129,0
11830,128,129,126,129,125,128,127,127,0
11835,131,127,127,128,125,125,128,127,0
11838,127,127,128,132,132,126,127,125,0
11841,128,128,127,128,127,128,127,129,0
11896,128,128,129,127,126,128,126,127,0
11907,127,127,127,128,125,127,124,125,0
11912,122,127,127,125,124,128,125,128,0
11917,128,128,126,128,129,129,129,129,0
11922,127,128,126,127,127,127,128,128,0
11962,129,127,126,126,125,128,127,124,0
11972,128,127,128,130,133,126,128,127,0
11987,127,128,129,127,126,129,126,128,0
11996,129,128,129,127,126,128,125,126,0
12004,127,127,129,128,126,127,123,126,0
12011,128,127,130,129,131,126,126,127,0
12016,128,127,126,126,127,129,126,128,0
12020,128,128,130,128,126,129,131,129,0
12024,127,128,125,124,124,128,125,125,0
12028,126,127,128,124,123,128,126,127,0
12031,127,128,124,129,129,129,128,129,0
12035,127,128,127,128,128,127,126,128,0
12038,130,128,130,128,126,125,127,127,0
12041,120,127,127,128,133,122,133,128,0
12044,129,127,129,129,129,127,127,129,0
12048,130,128,127,128,126,126,126,127,0
12051,128,128,128,126,128,121,126,127,0
12055,130,127,127,127,127,124,129,128,0
12058,128,127,128,128,129,128,129,128,0
12061,129,129,125,127,128,128,128,129,0
12065,130,127,128,127,123,127,126,127,0
12068,131,128,128,126,124,126,127,127,0
12071,121,127,127,127,127,129,127,129,0
12074,128,128,127,128,130,128,129,129,0
12079,128,127,129,127,124,126,125,126,0
12085,125,127,128,129,136,125,130,128,0
12088,126,127,129,130,130,126,127,128,0
12091,129,128,128,128,130,129,129,128,0
12094,130,127,128,126,126,129,125,126,0
12097,125,127,127,127,123,125,129,128,0
12100,128,127,130,129,131,127,127,129,0
12104,129,128,126,127,128,130,128,129,0
12107,130,128,127,128,126,130,126,127,0
12110,128,127,130,126,127,126,129,127,0
12114,127,128,128,128,128,129,127,128,0
12117,128,128,127,128,128,130,128,128,0
12121,130,128,128,127,126,129,127,127,0
12124,124,128,126,125,123,125,127,127,0
12126,125,127,127,126,125,130,128,128,0
12130,129,129,126,128,130,129,129,129,0
12133,128,128,125,126,124,126,127,127,0
12163,130,126,131,130,134,126,129,127,0
12171,127,127,131,133,133,126,125,129,0
12178,129,128,128,128,127,129,127,128,0
12185,128,128,123,128,126,129,126,126,0
12192,130,128,131,128,122,127,126,126,0
12232,126,128,126,126,123,129,125,127,0
12241,128,129,127,129,131,128,128,129,0
12250,129,128,126,128,128,127,126,126,0
12256,125,127,127,128,125,127,126,125,0
12261,128,127,130,130,132,126,127,126,0
12266,129,129,128,128,127,129,128,129,0
12274,129,128,127,127,126,129,127,128,0
12280,130,127,127,127,124,125,129,128,0
12287,128,127,129,129,132,126,128,128,0
12290,125,128,129,129,129,128,129,128,0
12294,129,128,126,129,128,130,127,128,0
12298,128,127,125,124,126,128,127,125,0
12301,125,126,128,124,124,127,128,127,0
12305,129,128,127,131,130,129,128,128,0
12308,127,128,125,125,127,129,129,128,0
12312,129,128,127,127,123,126,127,126,0
12317,123,126,131,131,132,126,128,128,0
12320,129,127,125,124,129,129,128,129,0
12323,130,128,124,128,127,128,127,127,0
12328,127,128,125,126,126,126,126,125,0
12331,126,127,125,125,123,128,126,127,0
12335,126,128,125,127,131,129,129,129,0
12338,127,127,124,129,130,129,130,128,0
12341,128,128,127,129,125,128,125,125,0
12345,126,126,128,130,137,126,129,128,0
12348,127,127,128,126,132,130,128,128,0
12351,129,128,126,127,130,129,127,128,0
12355,129,128,127,125,124,129,126,126,0
12358,126,127,128,128,129,125,127,127,0
12361,128,128,127,125,127,129,127,129,0
12368,128,129,129,127,129,129,127,128,0
12371,127,127,128,129,122,128,126,125,0
12375,127,127,129,125,122,126,127,127,0
12378,128,128,128,127,126,129,126,128,0
12386,128,127,129,127,126,124,126,127,0
12381,129,128,129,129,128,128,126,126,0
12390,127,127,130,131,133,127,130,128,0
12395,127,127,128,128,124,130,128,129,0
12398,129,129,126,128,128,129,128,128,0
12401,128,128,128,128,127,128,128,126,0
12406,124,127,127,127,122,126,125,125,0
12409,125,128,131,135,126,130,128,128,0
12413,128,128,131,127,130,129,128,129,0
12416,130,127,131,121,126,127,128,129,0
12419,126,128,129,137,133,125,129,127,0
12432,126,127,132,131,133,127,126,128,0
12437,128,129,124,124,126,130,129,129,0
12440,130,128,125,126,126,129,126,127,0
12444,130,129,129,125,122,126,126,123,0
12447,126,128,128,125,125,129,128,129,0
12501,128,129,126,126,130,129,129,129,0
12511,128,128,127,127,126,127,127,128,0
12520,126,126,131,130,130,125,130,127,0
12529,128,128,128,128,128,125,126,129,0
12535,130,128,126,128,128,129,126,128,0
12540,129,128,126,127,125,127,125,127,0
12545,130,126,130,126,123,128,126,127,0
12549,123,128,127,125,125,128,127,129,0
12552,129,128,127,127,127,129,129,129,0
12556,129,127,127,127,125,127,125,127,0
12559,127,127,129,128,122,124,129,128,0
12562,132,127,131,127,132,125,126,127,0
12566,127,128,132,126,130,130,129,129,0
12570,127,128,126,127,129,129,128,127,0
12574,126,124,128,125,124,127,126,125,0
12580,126,127,130,129,134,124,128,127,0
