Start Recording
23,126,127,131,130,134,126,127,129,0
27,129,128,127,127,127,128,126,127,0
31,128,127,127,128,126,129,129,128,0
35,125,127,126,128,124,125,129,128,0
39,128,127,129,130,128,128,128,128,0
43,125,129,127,128,131,129,128,128,0
47,127,128,127,125,126,129,127,127,0
51,128,126,127,122,128,124,129,127,0
73,127,127,128,130,128,128,127,128,0
79,127,128,126,126,128,130,129,129,0
85,128,128,128,126,126,128,126,127,0
90,128,128,128,125,123,127,126,125,0
95,128,127,131,131,127,128,127,128,0
98,126,128,126,129,126,128,125,128,0
102,127,129,126,126,133,128,125,128,0
105,128,127,127,126,124,126,125,126,0
109,128,126,129,127,127,129,128,129,0
112,127,128,128,130,127,128,126,129,0
115,128,128,127,128,128,128,125,128,0
119,129,127,129,128,124,126,129,128,0
122,130,127,129,130,134,127,130,128,0
126,127,128,128,130,132,129,128,128,0
132,127,128,126,126,127,130,127,128,0
137,129,128,128,128,127,124,126,126,0
140,128,127,127,126,123,128,126,127,0
144,128,129,128,128,127,127,126,127,0
147,126,129,124,124,132,129,127,128,0
151,130,125,130,128,125,127,128,127,0
154,128,127,130,123,127,128,128,128,0
157,127,129,127,128,125,127,129,129,0
161,127,128,129,128,126,126,128,127,0
164,126,128,127,127,126,127,127,127,0
167,126,126,130,133,141,127,135,128,0
171,127,128,129,131,131,125,131,129,0
174,128,129,127,128,125,127,126,127,0
178,128,128,128,129,124,127,128,127,0
181,126,126,127,127,125,128,128,127,0
184,127,127,125,128,129,130,130,129,0
186,130,129,127,127,126,126,128,129,0
190,128,128,123,126,128,128,129,125,0
193,127,128,126,128,133,128,132,128,0
196,128,127,130,134,129,126,126,128,0
200,132,126,130,124,127,130,128,129,0
204,128,128,125,127,123,126,125,125,0
208,126,126,128,129,129,128,128,127,0
211,128,128,126,127,129,128,128,128,0
214,130,128,127,127,130,130,127,127,0
217,129,128,129,131,122,128,129,128,0
220,125,126,128,125,121,125,125,127,0
224,125,127,128,129,128,128,129,128,0
228,128,129,126,126,129,129,131,129,0
232,126,128,126,128,123,126,126,127,0
235,128,127,129,127,122,127,125,126,0
240,125,127,128,126,128,129,129,129,0
243,128,129,126,128,129,129,127,129,0
245,128,128,126,126,124,125,126,127,0
250,127,127,132,133,132,126,129,128,0
254,128,128,131,130,134,126,126,128,0
257,125,129,127,127,130,130,128,129,0
260,128,128,126,127,124,128,130,127,0
264,129,126,126,125,125,125,125,126,0
285,129,128,126,127,127,127,128,127,0
290,126,128,127,127,129,129,129,128,0
293,126,128,125,127,125,126,128,128,0
296,123,127,127,128,123,124,126,127,0
300,129,127,130,129,135,127,127,128,0
303,128,128,125,126,126,129,127,128,0
306,129,129,127,126,128,128,126,127,0
309,124,127,126,126,123,129,127,128,0
312,129,127,129,129,134,127,130,127,0
315,131,128,127,125,128,129,125,127,0
318,129,128,123,127,129,127,128,125,0
321,127,126,133,127,125,127,126,126,0
324,124,128,130,124,128,128,125,128,0
329,126,128,126,129,130,129,129,129,0
332,128,128,125,126,127,129,127,128,0
335,130,127,127,130,127,125,128,128,0
341,129,127,129,128,135,127,129,128,0
345,125,128,125,125,130,130,130,129,0
348,128,128,126,127,124,128,126,128,0
351,132,127,130,129,122,127,124,126,0
354,128,125,130,128,123,128,124,127,0
357,127,129,121,127,129,129,128,126,0
364,128,128,126,126,130,128,128,127,0
368,124,126,127,125,125,127,125,127,0
371,125,127,130,130,134,127,130,128,0
373,127,127,127,128,131,130,129,129,0
376,129,127,126,127,125,127,126,128,0
379,129,127,128,127,123,130,126,125,0
382,127,127,131,131,133,127,129,128,0
384,127,128,125,126,128,130,128,129,0
388,127,128,125,128,127,129,127,128,0
391,129,127,129,126,125,128,124,126,0
403,127,125,128,124,122,126,124,126,0
406,128,128,124,126,130,128,126,128,0
409,128,129,131,129,126,126,129,128,0
412,127,127,125,127,123,127,126,128,0
415,127,126,127,126,125,128,128,128,0
420,124,128,126,127,126,127,127,129,0
424,129,128,129,129,128,127,127,127,0
428,125,127,128,129,128,122,130,127,0
440,129,127,129,129,132,128,131,128,0
443,130,128,128,128,126,127,126,128,0
446,128,128,126,126,127,128,125,126,0
449,129,128,127,128,126,128,124,127,0
454,127,128,127,124,126,122,127,127,0
459,127,128,126,127,127,130,128,129,0
462,128,129,128,127,130,129,128,129,0
465,128,128,126,128,124,127,126,128,0
468,128,125,126,125,126,124,125,126,0
471,125,127,127,127,128,129,130,130,0
475,127,128,126,127,124,128,126,127,0
480,130,127,129,127,124,126,125,126,0
484,130,127,129,131,135,127,131,128,0
488,127,128,130,128,134,127,127,128,0
491,123,130,126,127,131,130,128,129,0
494,131,127,130,127,127,129,127,127,0
497,125,127,128,129,127,125,126,127,0
499,128,128,121,125,125,129,129,128,0
502,130,129,127,127,127,128,126,128,0
505,128,129,128,126,126,127,125,127,0
508,126,127,130,128,123,126,131,128,0
512,126,127,129,133,132,127,126,127,0
518,131,128,129,124,129,130,127,127,0
521,128,128,126,126,127,128,126,127,0
524,126,126,126,127,126,124,128,127,0
527,127,126,129,130,131,125,128,128,0
530,128,129,125,125,129,131,129,129,0
534,128,128,126,126,128,128,127,128,0
537,130,128,128,127,123,127,127,128,0
540,121,127,127,129,125,129,129,130,0
543,127,128,126,127,127,128,128,129,0
546,130,128,127,128,127,126,126,125,0
550,128,126,125,127,124,124,127,127,0
554,127,128,128,130,136,126,126,126,0
557,129,129,130,126,128,129,128,128,0
575,128,127,127,128,127,128,128,129,0
579,126,127,130,128,123,125,126,127,0
583,127,127,129,122,123,125,128,128,0
586,128,128,126,127,126,126,126,128,0
590,128,129,128,130,128,128,127,126,0
594,126,127,128,128,125,123,126,125,0
598,128,127,131,131,133,127,130,128,0
600,127,127,126,127,125,130,128,129,0
603,129,128,128,128,128,128,127,129,0
606,128,127,128,124,127,128,128,128,0
609,129,126,127,125,126,128,127,128,0
616,127,128,125,126,129,130,129,128,0
620,128,128,129,128,126,126,126,126,0
624,128,127,128,127,125,124,127,127,0
630,127,126,131,131,141,128,135,128,0
633,128,128,129,129,129,128,127,127,0
637,128,128,126,128,128,130,127,128,0
639,128,128,127,128,125,128,125,126,0
654,129,125,128,131,127,126,130,128,0
658,127,127,127,128,131,130,130,129,0
661,130,128,126,126,126,128,128,128,0
665,127,128,126,127,127,130,127,127,0
668,127,126,128,129,132,127,132,128,0
673,128,128,127,128,130,129,129,129,0
679,127,128,126,126,130,129,129,129,0
683,128,128,126,126,123,127,125,126,0
687,130,126,128,125,123,128,125,126,0
690,126,127,125,125,129,129,130,129,0
692,126,129,125,127,125,127,128,128,0
696,128,127,129,127,124,127,124,127,0
700,129,127,130,131,132,126,130,127,0
702,128,127,129,130,127,131,131,129,0
705,129,128,124,127,128,129,126,129,0
709,128,129,128,130,125,128,126,127,0
713,127,126,129,129,132,126,130,128,0
715,128,127,129,129,125,130,127,129,0
718,128,128,127,127,126,128,129,128,0
730,127,128,125,126,126,129,128,128,0
733,127,127,126,125,124,128,127,126,0
736,128,128,127,127,126,129,128,129,0
740,128,129,126,127,130,128,128,128,0
743,128,127,130,130,124,126,124,127,0
747,126,126,130,129,128,124,130,128,0
750,129,126,129,126,133,125,129,128,0
753,128,129,128,126,129,129,127,127,0
764,127,128,128,127,125,127,124,125,0
768,127,127,128,127,124,126,125,126,0
772,127,127,128,125,125,129,128,128,0
776,127,129,126,128,128,130,129,128,0
780,127,129,128,129,127,128,126,126,0
785,126,127,128,125,125,124,129,126,0
791,128,127,131,132,131,127,129,127,0
796,124,128,126,127,127,130,130,128,0
804,127,128,125,126,125,128,126,127,0
808,129,126,128,125,126,128,126,127,0
811,124,127,127,128,130,127,129,128,0
814,128,128,127,126,128,130,128,128,0
819,130,128,127,128,126,129,127,128,0
822,128,127,129,125,127,124,126,125,0
826,123,127,126,127,123,125,125,127,0
829,126,128,127,128,130,129,128,129,0
832,127,128,125,125,127,127,127,127,0
836,129,127,128,127,124,127,125,125,0
840,126,127,130,132,133,126,130,128,0
844,128,128,130,131,128,130,128,129,0
847,133,128,125,120,128,129,127,128,0
850,130,128,127,130,127,124,126,126,0
852,127,126,129,131,135,127,130,128,0
855,128,128,125,126,128,130,130,129,0
858,129,128,126,127,125,128,127,129,0
861,129,127,127,127,122,126,125,125,0
865,125,127,128,126,126,128,126,127,0
879,128,129,126,128,125,129,130,129,0
882,129,128,126,127,125,127,125,127,0
885,130,128,129,129,128,125,125,125,0
888,127,127,129,130,132,128,131,128,0
892,126,128,129,131,126,130,128,129,0
895,129,128,128,129,126,128,127,128,0
898,127,127,126,125,126,127,127,126,0
900,127,126,127,125,123,128,125,127,0
904,130,128,125,126,126,127,128,128,0
910,129,128,127,128,126,127,126,128,0
915,127,127,128,128,124,124,127,126,0
918,127,126,130,124,124,128,128,128,0
921,130,128,126,129,126,129,127,127,0
925,128,128,127,129,130,128,128,129,0
928,127,128,126,127,128,125,129,128,0
935,127,126,128,130,135,127,131,127,0
940,129,127,129,131,130,127,128,128,0
944,127,128,128,124,129,128,128,128,0
947,128,128,126,126,124,127,126,126,0
951,128,127,127,125,123,127,125,126,0
954,127,125,129,125,128,128,127,126,0
963,129,129,127,127,132,128,127,127,0
970,126,128,128,128,126,129,127,128,0
973,126,127,128,130,132,127,130,127,0
976,128,127,127,131,130,126,125,127,0
979,127,129,129,126,132,128,127,128,0
982,128,128,127,126,129,131,130,127,0
985,127,126,126,125,126,125,127,127,0
990,128,128,127,126,125,128,128,129,0
997,129,129,126,127,127,128,127,128,0
1001,128,128,128,126,128,128,125,126,0
1004,126,127,126,127,124,122,126,126,0
1008,125,128,131,132,135,127,129,127,0
1012,128,129,125,124,128,130,128,129,0
1016,130,128,128,129,125,129,124,126,0
1019,128,127,127,127,123,127,127,127,0
1022,127,127,129,130,134,126,128,128,0
1025,126,128,126,128,126,129,126,129,0
1029,130,128,127,127,126,129,127,128,0
1035,129,127,127,128,123,125,125,125,0
1041,126,128,128,129,124,128,127,128,0
1044,127,127,127,128,129,127,126,128,0
1047,127,127,129,129,130,126,127,126,0
1050,125,126,128,126,126,126,127,124,0
1054,128,127,128,130,136,127,131,127,0
1057,124,128,125,126,132,130,130,128,0
1060,128,127,127,128,128,128,127,127,0
1063,128,128,128,128,125,127,124,127,0
1066,126,127,127,128,131,127,130,128,0
1069,127,128,128,127,127,129,126,128,0
1117,127,127,126,127,133,129,130,128,0
1123,129,127,125,125,124,123,127,125,0
1129,126,127,129,130,133,126,130,128,0
1187,126,128,125,127,127,130,131,129,0
1192,130,129,125,125,128,130,132,128,0
1196,129,128,127,126,122,127,126,127,0
1200,122,127,128,128,130,126,126,126,0
1204,128,129,128,127,129,129,128,128,0
1254,128,128,126,128,130,129,129,129,0
1261,129,127,127,126,124,126,127,126,0
1274,127,127,129,129,132,127,130,128,0
1279,126,127,127,128,130,129,128,128,0
1284,129,128,130,127,130,129,127,127,0
1288,126,128,126,128,126,127,127,127,0
1294,125,127,128,126,130,126,129,128,0
1298,128,127,128,129,126,129,130,129,0
1302,130,128,130,128,128,128,128,128,0
1305,127,128,125,126,122,128,124,126,0
1308,127,127,130,127,121,126,125,128,0
1311,127,127,126,127,128,128,126,128,0
1315,129,129,129,129,129,126,127,128,0
1318,128,129,128,128,124,126,127,127,0
1321,126,126,126,128,134,126,128,127,0
1325,130,126,129,130,131,126,126,128,0
1328,129,129,127,128,126,128,127,129,0
1331,129,128,128,127,125,128,127,128,0
1335,130,127,128,128,133,125,128,127,0
1339,128,127,128,130,126,129,128,129,0
1342,129,128,128,128,128,127,129,128,0
1345,129,128,128,127,122,128,125,127,0
1348,130,127,127,128,133,126,130,127,0
1351,128,127,129,131,130,128,127,128,0
1354,127,128,126,127,129,128,127,128,0
1357,128,127,127,128,129,128,127,127,0
1361,124,127,126,124,123,128,126,126,0
1388,129,128,127,126,124,125,125,127,0
1394,126,128,128,129,131,129,129,128,0
1398,127,127,126,128,129,129,128,127,0
1402,128,127,126,127,123,126,126,127,0
1405,128,127,130,130,135,126,128,127,0
1458,128,129,127,127,127,129,127,128,0
1468,128,127,127,128,127,128,128,128,0
1477,125,128,127,126,125,126,126,125,0
1525,125,128,126,127,124,127,126,128,0
1537,128,128,125,127,129,128,128,129,0
1546,129,128,129,128,125,126,125,126,0
1556,127,127,128,128,134,125,130,127,0
1561,128,127,130,129,135,128,129,127,0
1577,127,129,126,129,130,131,129,129,0
1582,130,128,128,127,124,129,127,127,0
1587,129,128,130,125,125,123,126,126,0
1592,126,127,129,126,125,128,127,127,0
1597,125,128,125,126,132,129,130,129,0
1601,129,129,126,128,126,128,129,126,0
1604,123,128,128,125,126,124,131,128,0
1608,132,126,131,129,138,126,127,127,0
1611,128,127,128,129,130,129,128,128,0
1614,128,129,125,129,126,128,127,128,0
1618,130,127,127,128,122,127,125,126,0
1621,128,124,128,126,123,126,125,125,0
1624,128,128,127,126,131,128,126,128,0
1628,128,128,129,128,129,127,126,127,0
1631,123,127,129,126,122,126,126,126,0
1634,125,126,131,130,140,126,131,128,0
1638,127,128,129,131,131,128,128,128,0
1641,129,129,127,128,130,129,128,129,0
1644,127,127,125,126,122,127,126,127,0
1647,124,125,127,125,124,126,126,128,0
1651,131,129,128,126,128,128,126,128,0
1655,127,128,129,129,129,129,129,128,0
1658,126,127,127,129,125,127,126,127,0
1661,129,127,129,129,131,126,128,127,0
1665,129,126,126,127,132,130,129,129,0
1668,128,128,126,129,128,129,129,129,0
1672,130,127,127,126,123,126,124,125,0
1680,128,125,129,129,129,127,131,128,0
1683,127,128,128,127,124,130,131,128,0
1686,128,128,128,123,128,128,126,128,0
1689,129,128,126,130,129,129,125,125,0
1692,123,128,127,125,123,126,127,126,0
1696,127,128,127,127,127,127,126,128,0
1699,129,128,127,130,129,128,126,127,0
1702,128,127,129,127,127,125,124,125,0
1705,127,127,130,130,131,125,127,127,0
1708,128,128,130,130,128,129,129,129,0
1711,128,128,127,127,130,129,129,128,0
1726,129,128,128,127,123,125,127,126,0
1730,126,125,129,125,124,127,127,128,0
1733,127,127,129,127,132,127,126,128,0
1736,128,128,127,128,129,129,127,128,0
1740,129,128,126,126,127,128,128,126,0
1795,127,127,129,131,131,126,129,128,0
1805,128,127,128,128,124,129,126,128,0
1814,129,128,127,127,129,129,128,129,0
1821,128,128,126,126,127,129,126,126,0
1826,125,128,127,128,126,125,127,126,0
1831,128,127,129,131,127,129,128,129,0
1836,129,128,126,128,128,129,128,127,0
1840,130,127,126,127,125,128,125,125,0
1843,131,126,128,126,122,123,128,127,0
1847,124,128,128,129,130,124,130,129,0
1850,129,128,125,127,129,129,126,129,0
1856,127,128,125,127,129,129,128,127,0
1860,124,126,127,126,124,128,126,126,0
1866,129,129,129,128,127,128,128,129,0
1863,127,128,129,130,131,126,126,128,0
1872,128,128,127,128,126,129,125,126,0
1876,128,127,127,128,124,126,126,127,0
1880,126,127,126,127,122,126,125,127,0
1883,127,128,128,129,129,128,128,129,0
1888,126,129,127,128,127,128,126,127,0
1891,128,127,128,126,127,126,131,127,0
1894,127,127,127,130,134,127,128,127,0
1897,128,128,125,126,128,130,130,129,0
1901,130,128,127,127,124,128,128,127,0
1904,129,127,129,126,123,126,126,126,0
1907,126,126,129,129,131,128,128,126,0
1911,130,129,128,126,126,130,129,128,0
1914,128,129,127,127,127,129,128,128,0
1917,128,127,127,128,122,126,127,128,0
1921,123,127,128,126,124,128,126,127,0
1926,128,128,126,127,130,129,129,127,0
1930,127,128,126,128,127,128,129,128,0
1934,129,127,127,126,128,125,128,127,0
1939,128,127,130,129,131,126,129,127,0
1943,124,128,126,127,126,130,128,128,0
1946,128,128,126,128,130,128,129,129,0
1951,126,127,125,127,126,127,128,125,0
1958,127,127,128,125,123,126,128,128,0
1962,131,127,127,127,127,127,127,129,0
1966,129,128,128,128,129,127,125,126,0
1970,126,127,126,129,131,127,131,128,0
1974,127,127,129,128,135,127,129,128,0
1980,128,127,127,128,130,130,128,129,0
1985,127,128,130,128,127,129,125,127,0
1991,128,127,126,125,123,129,125,125,0
1998,127,127,127,124,123,126,129,126,0
2005,126,128,125,127,126,128,130,129,0
2010,129,128,126,129,127,128,129,128,0
2015,129,127,128,126,125,127,124,125,0
2018,127,127,128,130,134,126,129,127,0
2022,127,127,128,127,128,131,129,129,0
2025,129,129,127,127,130,130,130,130,0
2028,129,128,127,127,124,126,125,128,0
2032,129,126,127,127,126,127,131,129,0
2035,128,127,129,129,124,130,131,129,0
2039,129,128,126,127,125,128,127,128,0
2042,130,128,128,128,124,129,126,128,0
2045,128,127,127,124,123,126,124,126,0
2049,127,127,128,127,127,129,128,129,0
2052,126,129,126,128,130,129,127,128,0
2055,127,128,126,128,127,129,127,128,0
2059,125,126,127,129,128,126,134,128,0
2062,129,126,129,131,133,126,125,127,0
2065,128,128,128,125,128,129,127,128,0
2069,128,128,125,128,125,129,125,126,0
2072,128,127,130,126,123,128,124,123,0
2076,122,128,127,127,124,125,125,127,0
2079,127,129,127,129,128,129,126,128,0
2082,128,128,128,127,130,127,126,126,0
2085,126,127,128,126,123,123,125,128,0
2090,126,127,129,130,134,128,129,129,0
2093,126,128,125,127,129,131,130,129,0
2097,130,128,127,127,128,130,130,128,0
2101,128,128,127,125,124,126,125,125,0
2105,125,127,128,125,126,128,128,128,0
2110,127,129,126,127,127,129,129,129,0
2114,129,129,127,129,128,129,127,128,0
2118,123,127,128,128,124,128,128,128,0
2121,127,128,128,128,134,128,130,128,0
2124,128,126,127,130,126,130,128,129,0
2128,130,127,128,128,125,128,126,126,0
2131,129,128,127,126,130,127,131,128,0
2137,128,128,128,129,133,127,128,126,0
2140,127,128,126,127,126,128,131,128,0
2143,129,128,126,128,130,129,128,129,0
2146,132,128,128,125,123,127,124,128,0
2150,122,128,130,125,124,128,126,127,0
2153,127,128,126,127,128,128,126,128,0
2157,128,128,128,128,127,127,124,127,0
2160,129,127,128,127,122,124,124,124,0
2164,126,127,129,130,134,127,131,127,0
2168,126,128,126,128,127,129,132,129,0
2176,130,128,125,127,127,128,128,128,0
2180,129,128,127,126,121,126,125,126,0
2184,126,125,127,125,122,125,126,128,0
2187,131,128,128,129,126,128,126,128,0
2191,130,128,128,127,129,129,130,127,0
2194,130,126,128,126,127,128,126,126,0
2197,125,128,128,126,129,126,129,129,0
2201,127,128,127,128,134,128,127,128,0
2204,129,128,127,129,131,130,130,129,0
2208,127,128,127,127,126,127,128,125,0
2211,128,127,127,128,134,127,131,128,0
2214,127,128,128,129,125,129,127,128,0
2220,129,129,127,127,129,129,128,128,0
2224,128,127,126,126,124,127,126,128,0
2227,125,127,128,128,132,127,131,128,0
2229,128,128,127,128,129,130,131,129,0
2232,127,128,127,127,132,130,129,128,0
2235,128,128,125,126,123,127,125,125,0
2238,126,127,128,129,128,125,127,127,0
2242,126,128,126,125,126,130,127,128,0
2245,129,128,127,127,133,129,128,128,0
2248,127,128,126,127,125,128,128,127,0
2250,125,126,128,125,123,128,126,128,0
2253,127,128,130,128,129,129,129,127,0
2256,129,127,127,129,132,128,128,129,0
2259,127,128,126,127,125,127,127,128,0
2262,128,127,130,129,131,125,129,127,0
2265,127,127,128,130,133,123,131,129,0
2268,128,128,126,128,127,129,129,129,0
2271,130,128,127,126,124,127,128,126,0
2274,122,125,128,127,123,126,126,126,0
2278,128,127,128,126,127,129,130,129,0
2280,127,129,124,127,131,130,131,128,0
2284,127,128,125,126,125,126,124,126,0
2286,128,128,128,128,130,126,128,128,0
2290,127,127,129,131,135,127,128,128,0
2293,130,127,128,129,127,130,129,129,0
2296,130,128,129,126,126,129,127,127,0
2300,128,127,127,126,123,124,125,126,0
2303,126,127,127,126,123,127,126,128,0
2308,128,128,128,126,131,130,130,129,0
2311,128,129,127,127,126,128,128,128,0
2314,129,127,126,127,124,126,126,126,0
2318,127,127,129,131,138,127,127,125,0
2322,128,128,125,128,129,129,130,129,0
2328,127,128,126,127,123,128,127,128,0
2332,129,127,128,127,127,126,128,127,0
2337,127,127,129,129,133,127,128,129,0
2340,128,126,128,129,126,129,128,128,0
2344,129,128,126,126,127,129,128,128,0
2348,129,127,126,124,122,124,124,126,0
2351,127,128,127,124,122,125,125,127,0
2354,128,129,129,130,129,129,127,129,0
2357,129,127,127,126,130,128,129,128,0
2360,126,127,127,129,125,127,125,125,0
2364,129,126,130,130,135,127,131,129,0
2367,126,128,126,126,129,129,130,129,0
2370,127,128,126,127,128,129,127,128,0
2374,128,127,126,126,122,125,124,126,0
2377,127,127,127,125,123,127,126,128,0
2380,129,128,126,128,128,130,129,129,0
2384,128,128,126,128,127,129,128,128,0
2387,129,127,127,129,123,126,125,125,0
2391,124,126,130,127,136,127,130,128,0
2394,127,129,128,129,129,128,126,128,0
2397,130,128,128,127,127,128,126,127,0
2401,127,127,130,128,124,127,125,126,0
2404,127,126,128,126,124,127,125,127,0
2411,128,128,128,127,128,127,125,128,0
2414,128,129,127,128,129,127,127,127,0
2416,126,127,127,129,130,126,128,129,0
2420,128,127,129,129,132,127,132,127,0
2424,130,127,129,126,126,130,131,129,0
2428,130,128,128,125,130,130,132,129,0
2432,128,128,126,126,123,125,126,128,0
2438,125,127,127,125,122,126,126,128,0
2442,130,129,127,127,126,127,125,129,0
2445,131,128,128,127,128,129,129,129,0
2450,131,128,128,128,126,128,128,127,0
2453,127,127,127,125,123,125,127,127,0
2456,125,128,126,127,130,124,128,129,0
2460,129,129,127,129,129,129,126,127,0
2464,128,128,128,128,127,129,125,125,0
2468,127,127,130,130,134,125,129,128,0
2474,127,127,128,130,134,128,126,126,0
2479,128,128,130,128,128,129,126,128,0
2483,132,128,128,127,129,127,126,126,0
2486,123,128,128,129,131,126,129,128,0
2490,128,127,128,129,130,125,126,128,0
2493,130,128,128,127,125,129,127,128,0
2498,129,128,129,128,126,129,127,127,0
2501,131,127,127,125,122,126,126,127,0
2505,128,127,128,130,133,125,131,128,0
2508,128,128,125,129,126,128,128,128,0
2512,127,127,133,131,127,129,127,126,0
2516,127,127,125,121,126,124,129,128,0
2520,129,126,129,132,133,126,128,129,0
2524,128,129,126,128,128,128,128,128,0
2527,127,127,126,125,127,128,126,127,0
2530,128,127,127,126,122,124,125,126,0
2533,126,127,127,128,124,128,128,129,0
2535,127,128,126,127,129,128,127,128,0
2539,128,129,126,128,127,128,128,128,0
2544,128,128,129,128,123,125,125,128,0
2549,125,127,129,131,131,127,129,128,0
2556,123,129,126,126,129,130,127,128,0
2561,130,128,128,128,126,128,125,126,0
2565,130,128,130,127,122,124,125,125,0
2569,127,127,126,126,123,126,124,127,0
2572,127,128,126,128,130,129,130,129,0
2575,128,129,126,127,126,126,127,128,0
2579,127,127,128,128,123,125,124,126,0
2582,128,127,128,130,134,127,131,129,0
2585,128,128,131,125,130,129,127,128,0
2589,128,128,127,126,129,129,129,129,0
2592,125,128,129,126,126,125,125,124,0
2595,132,126,126,124,124,127,126,128,0
2598,129,129,128,127,130,128,127,127,0
2601,127,128,126,128,128,129,127,128,0
2605,127,127,128,127,125,128,125,126,0
2611,127,126,127,129,134,127,129,128,0
2615,128,128,128,131,133,127,127,128,0
2618,129,128,128,127,129,130,128,128,0
2622,127,127,129,126,126,128,126,126,0
2625,128,127,128,128,128,126,127,127,0
2628,123,128,126,127,127,130,128,129,0
2632,129,128,129,130,128,129,127,128,0
2635,128,128,130,128,127,124,125,126,0
2640,126,127,129,128,122,126,126,128,0
2643,131,127,128,126,127,129,128,129,0
2646,127,129,127,129,129,129,130,129,0
2649,128,127,129,128,126,125,124,127,0
2652,127,127,130,130,134,126,129,128,0
2657,128,128,129,130,125,129,128,129,0
2660,129,129,126,125,129,129,127,128,0
2664,127,128,128,128,128,125,127,125,0
2668,130,126,127,130,131,127,133,129,0
2672,129,128,128,131,130,127,127,129,0
2677,128,129,127,122,126,130,128,129,0
2681,129,128,127,127,123,126,124,126,0
2688,130,128,128,126,124,127,126,126,0
2691,130,128,126,127,129,130,129,129,0
2698,126,128,124,127,130,130,129,128,0
2704,127,129,128,129,125,128,125,127,0
2707,127,127,128,129,131,125,129,127,0
2711,126,128,129,130,135,123,131,129,0
2717,129,128,127,127,128,129,129,129,0
2722,129,128,127,127,124,124,126,127,0
2727,131,126,128,125,123,126,126,123,0
2730,124,128,127,127,125,128,127,130,0
2737,127,129,127,129,127,128,125,129,0
2742,128,128,129,128,126,125,125,125,0
2746,127,126,127,125,130,126,131,128,0
2750,129,128,128,130,135,127,128,126,0
2753,128,128,129,127,126,129,127,129,0
2757,127,128,127,126,126,129,128,128,0
2761,128,127,128,126,123,125,125,125,0
2764,128,128,128,125,126,128,131,129,0
2770,128,129,125,127,129,129,129,129,0
2788,130,127,128,127,126,126,126,126,0
2793,128,126,132,131,132,127,131,128,0
2799,127,128,127,131,134,127,129,127,0
2805,126,128,126,125,129,130,128,128,0
2813,127,128,126,128,125,128,127,127,0
2818,128,127,127,126,124,128,126,125,0
2822,124,126,129,129,130,125,126,125,0
2828,125,128,126,127,130,128,126,128,0
2834,128,127,128,126,129,127,127,127,0
2841,126,127,126,127,124,126,124,125,0
2844,127,128,127,125,126,124,126,126,0
2848,127,129,128,129,130,128,126,127,0
2851,127,127,128,130,129,129,129,128,0
2854,129,127,125,126,123,125,126,128,0
2858,127,127,129,132,134,127,130,129,0
2861,127,127,127,128,126,129,128,128,0
2865,128,129,128,127,126,129,125,127,0
2868,129,128,128,127,124,126,126,125,0
2871,127,126,128,129,133,127,129,128,0
2874,127,127,126,128,128,130,128,129,0
2878,127,129,129,126,127,128,124,128,0
2882,128,128,129,128,124,127,127,125,0
2885,128,126,131,130,131,127,129,127,0
2888,123,129,126,126,128,129,127,128,0
2891,127,128,129,127,128,130,130,128,0
2895,129,128,126,124,125,128,126,127,0
2898,127,126,129,125,123,127,129,127,0
2901,128,128,127,126,128,128,128,128,0
2905,128,128,129,128,128,128,127,128,0
2908,125,127,127,126,126,128,127,127,0
2911,130,126,127,126,122,125,126,126,0
2914,126,128,128,127,125,126,127,128,0
2918,128,128,128,127,130,127,125,128,0
2920,128,128,129,128,127,126,127,127,0
2923,127,127,128,128,135,126,129,128,0
2926,127,128,128,132,131,127,126,129,0
2930,128,128,127,128,127,128,127,127,0
2934,129,128,129,129,127,127,127,125,0
2938,127,125,128,125,125,126,125,126,0
2942,127,126,126,126,126,129,128,128,0
2946,129,128,127,130,130,128,128,128,0
2950,133,127,127,128,125,128,127,128,0
2956,127,128,126,128,135,125,130,127,0
2960,127,128,129,131,134,127,125,128,0
2963,128,128,127,128,133,129,129,129,0
2966,128,128,126,127,126,128,127,128,0
2969,124,127,127,127,123,124,125,125,0
2972,127,128,127,126,126,128,127,129,0
2979,129,128,129,129,127,127,126,127,0
2985,129,128,131,128,125,127,127,127,0
2988,123,127,127,126,123,124,128,128,0
2994,129,126,128,128,133,127,128,126,0
2999,130,129,126,128,128,130,127,128,0
3002,129,128,127,129,128,129,128,128,0
3005,122,128,126,121,125,126,127,127,0
3008,128,128,129,126,125,128,126,127,0
3011,126,127,126,127,132,128,127,128,0
3014,129,128,127,129,127,128,126,126,0
3017,129,127,128,126,125,127,128,127,0
3019,129,128,131,131,132,128,129,128,0
3022,124,129,128,129,128,128,128,128,0
3026,128,128,127,128,128,130,128,128,0
3029,127,127,127,128,124,129,126,126,0
3032,130,127,130,129,132,127,130,128,0
3037,124,129,126,126,128,130,131,130,0
3040,129,128,128,125,126,129,126,129,0
3044,131,128,126,125,123,127,125,127,0
3047,126,127,128,128,127,124,129,128,0
3050,128,128,127,128,129,130,127,128,0
3053,129,128,127,128,132,129,130,127,0
3055,130,126,126,125,124,127,126,126,0
3061,126,127,127,125,122,125,128,128,0
3064,125,128,127,129,128,129,129,130,0
3069,128,128,126,127,125,127,127,127,0
3075,129,127,129,126,123,126,124,127,0
3083,129,126,130,129,132,127,130,128,0
3087,126,128,126,127,125,129,127,128,0
3092,127,128,128,128,127,128,126,127,0
3103,126,126,127,126,124,128,126,127,0
3107,130,127,129,125,126,128,128,126,0
3112,126,127,125,127,128,129,129,130,0
3116,129,128,129,127,126,126,128,128,0
3119,128,128,128,127,124,124,126,127,0
3122,128,127,129,130,138,127,130,128,0
3126,127,128,128,128,128,129,131,129,0
3129,129,128,126,128,127,129,129,128,0
3132,128,128,125,126,123,128,125,127,0
3136,128,127,130,129,131,127,131,128,0
3139,127,127,129,129,130,129,129,130,0
3142,127,128,128,126,129,129,128,128,0
3145,129,127,127,126,126,128,129,128,0
3150,127,126,128,127,124,126,126,125,0
3153,127,127,130,129,128,127,127,128,0
3156,128,127,129,127,132,128,127,127,0
3159,125,128,125,126,127,127,127,125,0
3162,126,127,129,130,133,126,131,128,0
3165,128,127,129,130,125,129,126,127,0
3168,129,128,127,127,130,130,129,129,0
3171,128,128,126,126,123,127,126,127,0
3174,130,127,128,125,124,126,126,126,0
3177,126,127,126,127,126,128,127,129,0
3180,129,129,128,129,126,128,125,126,0
3183,130,127,129,125,127,126,125,126,0
3187,124,127,126,125,124,125,126,127,0
3192,127,128,127,127,127,128,128,128,0
3195,125,127,126,128,130,130,127,128,0
3199,130,128,126,127,127,126,126,127,0
3202,127,128,128,127,124,121,133,127,0
3205,128,127,129,130,134,127,129,129,0
3212,130,128,128,128,126,129,126,126,0
3208,128,126,126,127,132,130,129,129,0
3215,130,126,126,125,124,123,128,127,0
3219,127,127,130,128,133,128,128,125,0
3222,131,129,127,125,126,129,126,128,0
3226,127,128,129,128,126,128,125,126,0
3230,126,127,128,127,123,123,126,125,0
3233,127,128,129,128,123,127,125,128,0
3236,126,128,129,128,129,130,127,128,0
3239,128,127,126,126,129,129,129,126,0
3242,127,128,127,125,125,127,127,128,0
3245,127,128,129,130,136,126,129,127,0
3248,126,129,126,127,129,129,129,130,0
3251,126,128,127,128,124,128,125,127,0
3254,130,127,130,125,122,124,125,127,0
3258,128,128,127,127,124,126,125,126,0
3261,125,129,124,127,132,130,130,129,0
3264,128,128,125,128,127,129,129,128,0
3267,128,128,127,128,128,125,129,127,0
3269,127,127,130,131,133,127,130,127,0
3272,124,129,126,127,128,130,131,129,0
3276,128,128,126,125,127,129,127,128,0
3280,128,128,127,127,121,125,125,126,0
3284,126,127,127,126,123,126,126,128,0
3287,127,128,126,129,129,128,126,128,0
3291,126,128,127,129,129,128,126,127,0
3295,129,127,128,126,126,126,128,127,0
3301,129,126,129,129,134,127,131,128,0
3307,126,128,127,128,127,129,127,129,0
3309,128,127,130,126,126,129,127,128,0
3313,126,128,124,123,126,128,128,127,0
3316,125,126,128,129,129,126,130,128,0
3320,126,128,125,125,127,129,128,128,0
3323,127,128,126,128,132,129,129,128,0
3325,128,127,125,126,122,127,124,127,0
3328,130,127,128,126,124,126,125,126,0
3331,127,128,128,130,127,128,129,129,0
3334,129,128,129,130,127,129,126,127,0
3337,125,127,127,126,127,127,126,125,0
3340,127,128,129,131,131,127,132,127,0
3343,128,128,130,131,133,125,131,129,0
3346,128,128,127,128,127,128,127,128,0
3349,128,128,127,126,124,127,128,127,0
3352,130,126,129,130,135,127,132,128,0
3355,128,127,128,125,125,128,128,128,0
3358,127,129,129,129,127,129,126,127,0
3361,127,127,126,125,125,128,127,127,0
3364,130,125,127,127,123,124,128,128,0
3368,130,127,129,129,126,130,129,130,0
3371,130,128,126,127,128,130,126,128,0
3374,128,128,127,126,126,129,131,124,0
3377,128,128,128,125,123,123,126,125,0
3384,127,126,130,128,128,129,127,128,0
3388,127,129,126,128,127,128,128,129,0
3391,128,128,126,127,123,125,125,127,0
3395,130,127,129,131,133,127,129,128,0
3400,128,127,129,131,129,125,127,128,0
3403,127,128,127,129,130,129,128,129,0
3408,131,127,124,127,126,128,126,127,0
3414,129,128,128,128,124,125,125,123,0
3419,123,127,126,127,124,127,128,128,0
3423,129,128,127,127,124,129,129,129,0
3426,128,128,125,127,126,128,129,127,0
3429,124,127,126,128,126,127,125,127,0
3431,127,128,128,126,127,123,128,128,0
3434,129,127,126,128,129,128,127,128,0
3437,127,129,126,128,127,127,125,126,0
3440,127,127,128,127,128,127,134,128,0
3443,130,127,130,129,134,127,128,128,0
3446,124,128,125,125,130,130,130,129,0
3449,129,128,127,127,126,128,126,128,0
3453,131,128,131,129,128,125,128,128,0
3456,127,127,130,131,133,127,129,125,0
3459,129,128,127,126,129,130,131,129,0
3462,128,128,128,127,125,128,125,126,0
3465,127,127,128,127,125,126,125,126,0
3467,128,127,128,128,124,128,126,128,0
3471,127,128,127,128,129,129,130,129,0
3476,127,129,125,124,129,128,129,129,0
3480,128,128,128,129,123,124,124,125,0
3483,126,127,126,126,124,129,127,128,0
3486,127,128,128,127,126,127,125,127,0
3489,130,127,129,129,127,128,128,128,0
3492,128,128,128,130,136,126,129,127,0
3495,128,127,130,130,136,126,127,127,0
3499,126,127,129,129,128,129,127,128,0
3503,128,128,129,126,127,129,127,127,0
3505,127,128,127,127,127,128,126,126,0
3510,125,127,128,128,134,126,130,128,0
3515,130,127,125,124,124,129,130,130,0
3521,129,128,126,126,132,129,128,129,0
3525,127,128,126,126,123,126,124,127,0
3531,122,127,129,129,128,129,128,128,0
3528,124,126,128,129,126,125,127,126,0
3534,129,128,126,126,130,129,129,129,0
3537,127,128,125,125,124,127,128,128,0
3540,124,124,128,124,124,128,126,128,0
3543,127,128,127,126,129,130,130,128,0
3546,126,128,127,131,130,128,128,128,0
3551,125,127,126,127,124,127,125,127,0
3554,129,127,128,126,130,126,131,128,0
3560,128,128,128,131,134,127,126,127,0
3563,129,128,130,128,127,129,126,128,0
3566,127,127,126,125,125,127,128,127,0
3569,130,126,128,125,122,127,125,126,0
3573,127,128,127,127,125,127,127,127,0
3578,130,128,129,129,128,128,127,128,0
3582,127,128,128,127,125,125,124,126,0
3585,125,127,127,127,123,127,126,127,0
3588,127,128,127,127,126,125,126,127,0
3591,130,128,127,128,129,130,129,128,0
3595,127,127,126,127,127,124,126,124,0
3601,129,127,129,129,132,126,132,127,0
3607,127,128,129,131,134,127,128,128,0
3610,127,128,126,127,128,129,129,128,0
3613,129,128,126,127,125,127,126,128,0
3617,130,127,126,128,124,124,128,128,0
3621,126,127,130,130,134,127,126,128,0
3625,129,127,128,128,131,128,126,128,0
3628,130,129,127,129,130,129,127,126,0
3633,123,127,130,127,124,127,126,125,0
3638,130,125,130,128,125,127,128,128,0
3643,128,127,126,127,127,128,126,128,0
3646,130,128,130,126,130,127,125,126,0
3649,124,128,129,127,123,126,128,126,0
3653,128,127,131,131,135,127,129,128,0
3656,125,128,126,128,128,129,131,129,0
3659,129,128,128,130,127,129,128,128,0
3663,125,127,127,127,125,127,124,127,0
3666,127,128,127,126,136,128,126,128,0
3669,129,129,126,127,128,130,128,128,0
3673,129,128,126,129,130,131,129,129,0
3676,128,128,127,127,122,126,127,125,0
3685,127,127,127,125,125,128,128,128,0
3689,131,128,128,129,128,127,127,128,0
3693,128,129,129,128,128,127,127,125,0
3696,127,128,127,126,126,126,128,127,0
3700,127,127,129,130,132,127,130,129,0
3704,128,127,127,126,129,129,126,128,0
3707,130,128,127,127,128,129,126,127,0
3711,125,128,126,125,125,128,126,128,0
3714,125,127,131,131,135,127,128,128,0
3717,123,129,127,126,127,128,131,129,0
3721,127,127,126,128,130,129,130,129,0
3723,127,126,127,127,122,127,125,127,0
3741,128,127,127,125,123,123,126,128,0
3746,129,128,125,127,126,128,127,129,0
3751,129,128,127,127,126,126,125,128,0
3755,128,127,129,128,124,125,124,126,0
3759,128,127,129,130,134,127,130,128,0
3767,128,128,127,129,125,128,128,128,0
3771,129,129,130,125,128,129,127,128,0
3777,129,128,130,128,125,129,128,128,0
3780,124,127,129,129,127,125,127,127,0
3786,126,126,125,125,132,130,131,129,0
3790,127,129,126,126,129,129,132,127,0
3794,128,127,129,131,123,128,131,127,0
3801,128,127,125,127,131,130,131,128,0
3797,131,125,130,131,134,128,134,128,0
3805,129,128,129,128,128,128,131,129,0
3809,130,128,130,126,126,127,129,124,0
3812,123,128,126,127,123,127,128,127,0
3816,126,128,126,127,128,129,131,128,0
3819,127,129,126,129,128,129,131,129,0
3824,127,128,126,127,124,126,126,126,0
3827,127,127,128,128,124,125,130,128,0
3831,130,127,129,131,135,126,129,128,0
3835,128,128,127,130,129,129,128,127,0
3841,127,128,127,127,128,127,126,126,0
3845,126,127,125,123,123,126,124,127,0
3848,130,127,127,128,126,126,126,127,0
3852,128,128,131,129,131,128,128,126,0
3855,127,127,125,127,129,126,126,126,0
3859,127,127,128,130,131,126,128,128,0
3863,126,127,129,130,134,128,128,126,0
3866,130,128,126,128,127,130,127,129,0
3869,129,128,128,127,125,127,124,126,0
3873,130,124,128,126,122,126,124,126,0
3877,124,125,132,127,128,128,127,129,0
3880,128,128,123,128,127,128,127,127,0
3882,129,128,128,128,126,126,123,127,0
3887,126,127,128,126,126,126,128,128,0
3892,126,127,129,131,135,127,127,128,0
3896,122,128,128,128,128,129,126,128,0
3899,127,128,129,126,127,128,126,127,0
3902,127,127,125,125,123,125,124,126,0
3905,127,127,126,126,123,126,126,128,0
3908,128,128,128,130,128,128,126,128,0
3912,129,128,128,129,130,128,126,126,0
3915,125,127,128,126,124,127,123,127,0
3918,122,127,128,127,123,128,124,128,0
3921,124,129,127,127,132,127,127,127,0
3924,126,128,126,129,129,129,127,128,0
3927,126,127,126,127,125,128,129,128,0
3930,127,128,130,131,140,126,128,128,0
3933,129,127,127,128,125,129,124,128,0
3937,130,128,128,129,128,128,125,128,0
3941,128,127,127,128,125,128,125,127,0
3944,126,126,126,127,130,127,128,129,0
3948,128,128,128,130,128,128,127,128,0
3951,128,129,125,127,129,130,127,127,0
3955,127,127,128,127,128,130,124,126,0
3964,130,127,130,125,125,128,127,128,0
3966,124,128,127,128,129,129,129,129,0
3972,128,129,125,128,127,127,128,129,0
3975,128,127,127,126,127,127,127,127,0
3978,126,127,131,130,132,127,130,128,0
3981,128,127,127,128,131,129,127,129,0
3987,131,128,127,128,131,129,126,127,0
3992,127,127,126,125,126,128,126,123,0
3997,124,127,129,129,127,126,126,127,0
4001,127,127,128,128,130,130,131,129,0
4007,129,128,127,125,129,129,128,128,0
4010,127,129,124,126,125,128,124,126,0
4014,127,124,130,126,122,128,126,128,0
4017,128,128,127,127,127,128,126,127,0
4020,127,128,128,129,129,129,126,126,0
4024,126,126,129,129,124,127,127,124,0
4027,126,127,129,131,139,127,129,127,0
4030,127,127,129,129,123,128,127,129,0
4033,131,129,126,123,127,129,128,129,0
4037,130,127,129,128,124,127,124,125,0
4041,131,125,131,128,123,126,125,128,0
4043,128,128,126,127,125,126,126,127,0
4046,129,128,128,130,130,129,128,128,0
4051,127,128,127,128,124,125,128,128,0
4054,124,126,128,125,129,127,134,129,0
4056,129,128,128,129,132,125,131,130,0
4060,127,129,127,127,126,128,129,128,0
4063,128,128,126,127,126,128,127,128,0
4066,129,127,128,129,132,126,129,128,0
4069,127,127,128,130,131,124,130,128,0
4072,131,129,125,129,127,129,130,129,0
4076,129,128,125,126,123,126,124,126,0
4079,127,128,128,127,124,124,130,128,0
4083,127,127,128,129,129,124,127,129,0
4085,130,129,130,129,127,129,126,129,0
4091,128,127,125,125,129,129,127,129,0
4094,127,127,125,127,125,126,126,125,0
4099,125,127,126,125,123,125,125,128,0
4104,128,128,130,127,129,128,126,128,0
4107,127,128,127,128,132,128,127,128,0
4111,126,126,127,128,125,125,123,125,0
4118,127,124,131,134,135,128,130,129,0
4124,130,127,127,125,130,131,128,128,0
4127,129,128,128,122,129,129,126,127,0
4131,124,128,126,129,123,125,128,128,0
4134,127,128,129,130,134,127,130,128,0
4138,123,129,126,126,128,130,128,129,0
4141,128,128,130,128,126,128,126,126,0
4146,124,127,126,126,127,123,125,126,0
4149,126,127,126,125,124,129,127,128,0
4153,128,128,127,127,129,130,130,129,0
4156,127,128,125,127,126,128,126,128,0
4159,128,127,129,127,125,127,125,126,0
4162,127,128,130,130,133,127,130,129,0
4166,129,127,125,126,127,129,128,129,0
4169,129,128,128,128,125,128,126,127,0
4172,129,127,129,126,125,127,126,125,0
4175,128,127,129,127,123,128,125,127,0
4179,126,127,127,129,133,129,129,129,0
4182,130,127,125,127,129,129,130,130,0
4185,128,128,126,127,125,128,128,126,0
4188,122,127,128,126,124,127,126,127,0
4191,127,129,129,128,128,126,126,127,0
4195,128,128,128,129,131,127,126,128,0
4200,129,127,128,128,128,127,132,129,0
4204,128,126,130,129,133,128,130,128,0
4208,128,127,128,128,126,130,127,128,0
4211,130,129,127,127,125,129,128,128,0
4213,129,126,130,127,123,128,125,126,0
4217,130,127,129,125,123,128,127,128,0
4222,126,128,128,128,126,126,127,128,0
4229,127,127,127,127,129,129,130,128,0
4232,130,127,128,126,125,126,127,127,0
4235,127,127,130,129,133,127,131,128,0
4238,128,127,128,129,124,130,130,130,0
4241,128,128,129,129,131,128,126,128,0
4244,129,128,129,128,124,128,126,127,0
4247,129,127,128,128,127,125,129,128,0
4252,129,128,129,127,129,128,128,128,0
4255,128,129,126,127,128,129,131,128,0
4260,129,128,126,125,125,129,127,127,0
4263,127,126,128,127,122,126,125,128,0
4265,128,126,127,128,128,129,129,129,0
4269,126,129,125,127,130,128,129,128,0
4272,127,128,126,126,128,127,128,128,0
4274,122,127,128,129,127,125,129,127,0
4277,129,127,129,130,134,123,130,129,0
4280,129,128,130,127,128,128,129,129,0
4284,129,128,129,129,126,128,126,125,0
4289,128,127,126,128,122,128,126,127,0
4296,128,128,127,129,124,130,128,128,0
4300,128,129,127,127,129,129,129,128,0
4304,128,128,127,128,126,128,124,127,0
4307,127,127,127,125,126,124,130,128,0
4311,130,126,129,129,134,126,128,129,0
4314,127,129,125,126,132,129,129,128,0
4318,126,128,128,127,126,129,127,127,0
4321,129,127,129,126,124,127,125,126,0
4325,126,127,126,125,126,129,129,129,0
4328,127,128,127,128,127,128,127,128,0
4332,130,128,127,128,123,126,128,128,0
4335,129,127,128,126,124,127,125,124,0
4340,128,127,129,130,135,127,132,126,0
4348,128,128,126,127,125,130,129,129,0
4351,130,128,127,127,127,128,128,127,0
4354,125,127,126,126,125,128,127,126,0
4357,129,127,127,128,124,126,128,127,0
4360,125,128,128,125,132,129,129,127,0
4363,128,128,128,127,128,128,126,126,0
4365,128,127,129,129,129,125,129,128,0
4368,127,127,133,130,133,127,130,128,0
4371,129,127,126,128,131,130,130,129,0
4374,130,128,126,128,131,129,130,128,0
4377,124,128,126,127,125,127,128,126,0
4380,125,127,128,128,124,128,128,128,0
4383,128,128,128,128,127,127,127,128,0
4386,127,129,129,127,128,129,127,127,0
4389,126,126,128,125,123,126,125,126,0
4392,124,127,127,123,125,126,127,128,0
4396,129,129,128,130,128,129,129,128,0
4399,130,127,128,128,128,126,126,127,0
4403,128,127,128,126,126,124,130,128,0
4407,127,127,130,129,135,127,131,128,0
4410,127,128,127,126,125,129,128,129,0
4414,130,128,127,126,129,129,128,128,0
4416,128,128,130,125,127,128,125,126,0
4421,125,126,129,129,132,126,131,128,0
4424,127,128,127,127,125,129,130,130,0
4430,128,128,128,127,126,129,126,128,0
4433,128,128,127,127,126,129,128,127,0
4437,123,127,128,125,124,127,126,127,0
4441,127,127,126,128,128,129,129,129,0
4445,129,129,126,128,126,127,128,128,0
4450,129,129,129,129,128,128,127,127,0
4454,122,127,129,126,123,127,126,127,0
4457,127,127,128,130,134,128,127,129,0
4460,131,128,128,130,128,129,127,126,0
4463,126,128,127,125,127,126,125,125,0
4467,124,126,130,129,134,127,130,128,0
4470,129,127,130,130,134,125,130,129,0
4473,129,129,125,126,127,130,126,129,0
4476,130,128,130,129,127,128,126,126,0
4481,126,126,129,127,122,128,126,125,0
4485,126,126,130,129,129,129,127,128,0
4488,127,129,125,127,128,129,129,128,0
4491,127,128,126,126,127,130,125,128,0
4494,131,126,128,130,127,125,125,127,0
4497,126,127,129,130,129,124,127,129,0
4500,129,129,127,127,126,129,127,129,0
4504,129,128,129,128,125,126,124,126,0
4508,127,127,130,125,124,126,124,127,0
4512,126,128,126,125,129,123,126,128,0
4515,130,128,127,129,128,128,126,127,0
4517,127,128,128,129,127,129,127,127,0
4520,127,126,127,126,124,125,125,125,0
4523,126,128,128,130,135,127,128,125,0
4529,127,128,125,128,128,130,128,130,0
4531,129,128,127,126,125,127,126,127,0
4535,128,128,130,128,126,126,130,127,0
4539,128,127,129,131,134,128,126,127,0
4542,127,128,129,128,128,129,127,128,0
4547,130,128,129,128,130,130,129,128,0
4551,129,128,126,122,126,128,126,126,0
4554,125,127,130,132,134,127,126,128,0
4558,129,129,126,127,126,129,126,128,0
4562,128,128,126,128,127,129,131,129,0
4567,125,127,128,125,125,128,127,125,0
4573,129,127,126,127,125,128,127,128,0
4576,127,128,126,130,130,130,130,130,0
4580,126,128,126,129,128,128,128,128,0
4583,130,127,128,127,124,125,125,124,0
4587,128,127,128,130,133,127,130,129,0
4594,127,128,126,129,128,130,127,128,0
4598,127,128,130,129,131,129,126,127,0
4602,126,127,128,127,122,124,124,126,0
4605,127,127,129,130,133,127,130,128,0
4609,127,125,125,126,130,130,129,128,0
4612,130,128,127,125,128,129,127,128,0
4616,129,127,128,128,125,128,126,127,0
4619,126,127,127,125,124,127,125,126,0
4622,123,128,126,129,128,129,129,129,0
4625,126,129,126,127,130,128,126,127,0
4629,125,127,128,128,125,124,127,126,0
4632,127,127,129,131,131,126,129,128,0
4635,128,128,126,126,126,129,128,129,0
4638,127,127,126,127,129,129,128,129,0
4642,126,128,128,127,122,125,125,126,0
4645,130,126,128,125,122,125,125,126,0
4648,131,127,128,127,127,129,127,128,0
4652,126,129,126,128,130,129,130,129,0
4655,127,127,126,126,125,126,126,128,0
4658,126,128,128,125,124,122,130,128,0
4662,127,128,129,131,133,125,130,129,0
4665,130,128,127,127,126,128,126,127,0
4669,126,128,127,128,125,128,128,127,0
4673,128,127,128,128,124,126,127,127,0
4679,128,128,126,128,128,126,127,127,0
4683,127,129,126,127,131,130,129,128,0
4687,129,128,126,128,125,126,126,128,0
4690,123,127,128,131,141,127,134,129,0
4693,128,127,129,130,130,124,125,127,0
4697,129,128,129,128,129,130,128,128,0
4700,128,127,125,127,126,128,126,127,0
4703,130,128,127,125,123,126,124,126,0
4706,126,127,128,127,127,128,127,129,0
4710,129,128,126,126,127,126,126,127,0
4713,130,128,126,126,127,127,125,126,0
4718,126,127,128,131,133,126,129,128,0
4724,128,127,130,130,132,127,128,128,0
4727,128,129,127,128,127,129,128,129,0
4730,128,129,129,128,128,128,126,125,0
4734,127,127,128,125,123,127,126,128,0
4737,127,128,128,126,127,129,128,128,0
4740,128,128,126,129,130,129,128,128,0
4743,128,128,127,128,127,128,128,127,0
4747,128,127,129,128,131,129,135,128,0
4752,127,126,129,129,134,127,126,129,0
4755,128,128,126,127,127,128,127,128,0
4759,127,128,126,125,127,129,127,127,0
4762,128,128,128,128,122,127,124,124,0
4765,125,127,128,131,130,128,129,127,0
4769,124,128,129,128,132,128,126,128,0
4772,131,128,126,125,125,127,126,127,0
4775,128,127,127,127,124,126,125,126,0
4778,127,126,128,127,124,125,125,126,0
4782,128,128,128,127,131,130,131,129,0
4785,129,128,129,128,125,126,126,128,0
4789,128,127,128,127,126,125,126,126,0
4794,129,126,129,131,132,126,130,128,0
4798,129,128,127,127,125,129,129,130,0
4802,130,128,125,128,127,129,129,128,0
4806,132,127,128,126,122,128,124,125,0
4809,126,127,128,128,124,128,129,128,0
4813,127,128,125,126,126,128,127,128,0
4816,128,128,128,127,129,129,129,127,0
4819,125,125,126,125,127,127,127,124,0
4823,127,127,127,129,134,126,129,128,0
4826,127,128,128,127,127,130,129,129,0
4830,128,128,128,127,126,127,125,127,0
4833,127,127,125,129,123,129,126,128,0
4837,127,125,128,125,125,127,126,127,0
4840,128,129,126,127,129,128,127,128,0
4844,128,128,128,129,131,129,131,127,0
4848,127,128,127,127,125,124,125,125,0
4850,123,125,130,130,132,127,130,129,0
4853,127,127,129,131,133,125,131,130,0
4857,130,128,126,127,127,129,129,128,0
4860,129,128,127,128,123,126,127,127,0
4862,128,125,129,131,132,127,129,129,0
4866,128,128,127,127,126,128,128,129,0
4870,127,129,126,127,131,129,128,129,0
4873,129,128,127,125,124,127,125,128,0
4876,128,125,127,125,123,127,125,128,0
4880,129,129,128,128,125,127,125,129,0
4884,129,128,129,128,130,129,127,128,0
4886,127,128,126,127,124,127,130,127,0
4889,125,127,131,129,130,127,128,128,0
4898,129,128,128,128,127,130,129,129,0
4901,129,128,127,127,126,128,129,129,0
4906,130,127,128,127,123,127,124,126,0
4913,129,128,130,125,123,127,127,127,0
4917,125,128,127,124,125,130,126,129,0
4921,128,129,128,128,127,129,129,128,0
4924,129,128,129,127,126,123,126,127,0
4927,130,127,129,126,122,126,126,125,0
4931,127,126,127,129,131,125,126,128,0
4934,129,128,128,129,128,129,126,127,0
4938,127,128,129,127,127,127,125,126,0
4941,128,126,128,128,133,128,132,128,0
4944,129,128,128,128,134,127,126,127,0
4947,128,129,126,127,130,129,131,128,0
4950,128,128,126,128,124,129,125,127,0
4953,130,128,129,128,122,127,125,125,0
4955,130,127,126,127,125,128,128,129,0
4958,129,129,127,128,127,129,128,128,0
4961,127,127,126,127,125,127,125,126,0
4964,128,128,127,126,123,125,126,127,0
4967,125,128,128,128,126,127,126,127,0
4969,128,127,127,128,130,128,127,128,0
4972,129,127,128,127,129,129,128,127,0
4975,124,127,127,126,135,126,129,127,0
4978,127,128,130,130,133,127,128,127,0
4980,127,128,126,127,132,129,130,129,0
4984,128,128,126,126,125,129,127,128,0
4987,126,127,128,126,122,126,128,127,0
4989,128,127,131,130,130,126,128,126,0
4992,130,128,128,128,130,130,128,128,0
4996,128,129,127,126,127,130,128,128,0
4999,128,127,127,128,123,128,126,126,0
5001,127,126,130,128,128,125,128,127,0
5004,124,128,127,125,127,128,126,128,0
5009,131,127,127,127,126,129,127,128,0
5015,129,128,126,127,124,128,126,127,0
5020,127,127,126,127,125,124,127,128,0
5023,128,128,129,131,135,126,130,129,0
5027,127,128,127,127,127,128,129,129,0
5030,128,128,129,129,123,127,124,126,0
5033,127,127,127,124,126,127,128,128,0
5036,127,127,125,127,128,129,130,129,0
5040,129,129,126,128,127,127,126,128,0
5043,126,128,128,127,126,128,129,127,0
5046,128,126,130,130,132,126,130,128,0
5050,127,128,126,127,128,130,128,129,0
5053,128,128,126,127,129,132,129,128,0
5057,127,127,127,126,126,128,126,125,0
5060,125,127,128,126,124,127,127,128,0
5062,126,127,126,126,126,128,127,128,0
5066,128,128,128,127,128,127,126,127,0
5069,127,127,127,127,125,128,128,128,0
5072,128,127,130,131,133,127,131,127,0
5074,127,127,129,130,126,128,126,128,0
5077,127,128,129,127,129,129,127,127,0
5080,129,128,129,127,126,128,127,126,0
5083,126,127,128,128,127,124,126,127,0
5086,126,127,129,128,127,131,129,129,0
5090,127,128,126,128,129,130,128,128,0
5093,131,128,126,125,125,128,129,128,0
5096,131,127,127,127,123,127,126,127,0
5100,124,128,125,126,127,130,131,129,0
5104,128,129,125,128,127,129,129,129,0
5107,129,128,128,127,125,124,124,126,0
5110,128,128,128,125,124,126,125,126,0
5112,127,127,126,127,126,125,127,129,0
5117,128,128,126,128,130,129,127,128,0
5123,130,128,127,128,129,128,127,128,0
5126,123,126,129,130,134,126,131,128,0
5129,127,127,130,130,134,128,128,126,0
5132,129,127,126,126,130,130,129,128,0
5134,129,128,127,130,128,128,129,128,0
5137,125,127,127,124,122,125,126,127,0
5140,126,127,126,123,126,128,127,128,0
5143,129,129,127,129,127,128,125,129,0
5146,130,128,127,127,127,128,127,128,0
5150,126,126,128,128,122,127,129,128,0
5153,127,128,131,131,132,127,128,128,0
5156,128,127,128,127,128,129,131,129,0
5160,128,128,126,126,126,128,127,128,0
5163,127,126,130,128,128,125,126,127,0
5166,127,127,128,131,133,128,126,126,0
5170,130,127,127,127,128,129,128,129,0
5172,129,128,129,125,125,129,127,127,0
5175,127,128,127,125,124,127,126,125,0
5178,125,128,129,130,127,125,127,128,0
5181,129,128,125,129,126,128,129,129,0
5184,128,128,126,125,125,128,125,126,0
5187,127,128,129,125,127,122,124,126,0
5190,127,128,127,125,127,128,127,129,0
5193,126,129,126,128,126,129,130,129,0
5198,128,129,127,128,126,129,127,128,0
5202,129,126,126,127,127,126,125,126,0
5229,124,127,130,129,132,126,130,128,0
5233,127,127,129,128,129,130,128,129,0
5240,128,128,126,128,126,129,129,129,0
5243,129,127,127,127,123,125,124,125,0
5250,126,127,127,125,123,127,126,127,0
5257,127,128,128,127,129,129,127,127,0
5297,127,128,127,128,130,126,126,126,0
5305,126,127,129,127,128,124,125,126,0
5312,127,125,131,131,139,127,135,129,0
5318,127,128,128,127,129,130,132,129,0
5322,128,128,127,127,126,128,125,127,0
5367,127,128,125,129,130,123,126,127,0
5378,127,127,129,126,122,127,127,127,0
5388,129,127,126,126,125,129,127,127,0
5435,127,129,126,129,130,129,130,128,0
5445,128,128,127,126,127,128,127,125,0
5455,125,126,129,131,131,127,131,128,0
5461,129,127,131,129,130,130,130,130,0
5466,127,128,124,125,128,130,131,129,0
5505,129,127,125,127,123,127,125,127,0
5531,129,126,129,128,121,124,129,128,0
5548,128,128,128,129,130,127,128,129,0
5556,128,128,126,127,130,130,131,129,0
5561,128,128,125,127,124,127,130,128,0
5566,128,126,127,126,123,127,126,127,0
5570,126,127,126,127,125,127,127,128,0
5574,129,128,130,127,128,129,126,128,0
5578,127,127,126,125,128,128,127,127,0
5581,126,126,127,127,125,125,126,128,0
5584,127,128,129,131,133,128,129,128,0
5589,125,129,128,128,127,128,127,128,0
5594,131,126,132,125,127,128,127,127,0
5598,128,126,128,132,137,127,130,127,0
5601,130,128,129,130,130,128,127,128,0
5604,128,129,126,126,129,130,129,129,0
5608,128,128,127,126,124,126,124,126,0
5611,130,126,127,126,123,127,125,126,0
5614,125,127,128,129,130,129,129,129,0
5618,127,129,125,127,126,128,127,128,0
5621,127,128,128,130,126,128,127,128,0
5624,126,128,128,125,125,124,130,127,0
5628,128,127,131,131,132,125,126,126,0
5631,132,126,126,126,130,129,126,128,0
5634,130,128,127,127,128,128,125,126,0
5638,125,127,127,128,123,125,126,126,0
5641,127,128,127,128,123,128,125,127,0
5644,128,129,127,128,130,129,127,129,0
5647,127,128,127,127,128,129,127,128,0
5650,122,126,130,132,134,126,128,127,0
5653,127,127,130,128,134,127,127,125,0
5656,130,128,126,127,127,129,131,129,0
5659,129,128,126,128,125,129,128,128,0
5662,128,128,128,126,125,128,126,126,0
5665,125,126,127,125,124,128,126,127,0
5668,129,127,125,127,126,129,129,129,0
5671,128,128,128,127,125,125,125,126,0
5674,128,128,129,127,123,127,126,126,0
5677,127,127,128,127,124,127,125,127,0
5680,123,128,127,128,129,129,127,127,0
5683,125,127,128,129,130,128,127,128,0
5686,126,127,128,129,125,127,128,127,0
5691,130,127,132,130,133,127,130,129,0
5698,127,129,127,130,129,130,132,130,0
5701,128,129,126,126,125,128,124,128,0
5704,130,126,128,127,122,125,126,126,0
5707,127,127,130,130,133,127,129,127,0
5711,126,128,127,126,125,129,128,129,0
5714,129,128,128,128,126,129,126,126,0
5717,127,126,129,128,124,127,124,126,0
5720,127,128,128,128,123,127,125,126,0
5723,129,127,126,125,129,129,129,129,0
5727,127,128,125,128,128,128,126,127,0
5774,129,128,127,126,125,126,124,126,0
5786,125,127,129,130,135,127,129,128,0
5794,127,126,128,127,130,129,128,128,0
5798,127,129,125,128,129,130,128,128,0
5802,128,128,127,127,124,127,126,125,0
5806,127,127,129,129,132,126,129,128,0
5810,126,128,129,129,124,129,131,128,0
5815,129,127,128,129,129,129,127,127,0
5821,129,128,129,127,126,127,124,125,0
5824,128,127,129,130,126,125,126,126,0
5827,125,127,127,128,128,129,129,128,0
5834,127,128,126,125,128,128,131,125,0
5830,127,128,126,126,130,129,129,128,0
5842,125,127,128,128,124,124,130,128,0
5846,126,127,129,130,131,128,127,127,0
5849,128,129,128,128,126,129,128,129,0
5852,129,128,126,128,125,128,125,127,0
5857,128,127,129,129,121,126,125,127,0
5861,129,128,127,124,127,128,126,127,0
5866,126,128,123,128,129,129,128,128,0
5873,129,127,127,128,125,128,128,128,0
5879,129,126,128,127,128,126,131,128,0
5883,126,127,129,130,133,127,129,129,0
5886,127,129,127,127,129,129,126,128,0
5890,129,129,128,127,126,128,126,127,0
5893,125,128,128,125,124,124,128,127,0
5896,127,127,129,132,132,127,128,128,0
5900,124,128,129,126,130,130,127,128,0
5903,128,128,125,126,128,128,128,129,0
5906,128,128,126,124,125,127,126,126,0
5909,127,127,127,127,124,128,126,127,0
5913,126,128,126,127,130,129,130,129,0
5916,128,129,126,126,126,128,126,127,0
5920,129,128,128,128,126,127,128,127,0
5924,127,127,129,131,135,127,128,128,0
5927,125,129,126,127,127,129,130,128,0
5930,127,127,126,127,128,129,127,128,0
5933,126,126,126,128,125,128,125,126,0
5937,128,127,127,125,126,126,126,127,0
5940,127,128,127,129,130,129,129,128,0
5943,126,128,126,129,130,129,130,127,0
5947,125,127,129,132,131,127,130,129,0
5950,126,127,127,129,136,126,126,127,0
5953,124,128,126,127,126,129,128,129,0
5956,128,128,127,128,131,129,130,127,0
5959,129,126,127,125,123,128,125,126,0
5973,130,128,128,124,123,126,126,126,0
5976,128,128,127,127,127,129,128,129,0
5979,129,128,130,127,125,127,126,127,0
5983,127,127,127,127,128,126,126,126,0
5990,127,127,129,130,134,127,130,129,0
6043,130,128,126,128,131,130,130,129,0
6051,128,128,126,126,131,130,130,128,0
6057,128,127,126,126,122,127,127,127,0
6061,127,124,127,125,125,129,127,128,0
6065,128,128,127,128,127,129,129,129,0
6069,127,129,127,127,129,127,126,126,0
6072,128,127,129,127,124,124,127,126,0
6076,129,127,129,130,134,126,131,129,0
6079,127,128,128,126,125,129,126,128,0
6082,128,128,128,129,129,130,127,128,0
6085,128,128,126,125,126,128,130,127,0
6088,128,127,128,125,125,126,126,127,0
6092,125,125,127,127,125,126,126,127,0
6095,126,129,127,128,130,127,126,128,0
6098,128,128,127,126,125,127,127,127,0
6102,125,126,127,129,137,127,134,128,0
6105,126,128,128,130,126,130,128,128,0
6108,129,128,127,128,125,129,129,128,0
6112,129,129,129,127,123,126,124,125,0
6115,128,127,130,129,134,127,129,127,0
6119,127,127,129,132,129,128,128,128,0
6122,129,128,127,129,129,130,129,128,0
6125,129,128,126,124,126,129,126,128,0
6128,128,127,126,128,123,126,125,127,0
6132,130,128,128,128,126,129,128,128,0
6135,127,127,127,128,129,128,129,128,0
6145,130,128,128,128,125,128,125,126,0
6151,127,127,127,127,126,125,129,127,0
6156,126,127,129,130,134,127,128,127,0
6160,128,129,126,129,129,128,127,128,0
6163,128,128,128,126,125,127,125,125,0
6167,127,125,128,126,124,127,125,127,0
6170,130,128,128,127,125,128,126,128,0
6173,126,129,126,129,130,130,128,129,0
6177,128,129,127,128,125,128,125,127,0
6180,126,127,129,126,126,126,125,125,0
6183,126,127,127,127,125,128,127,128,0
6186,127,128,126,129,129,128,128,128,0
6190,130,128,127,128,128,129,129,128,0
6193,123,128,127,127,125,123,133,128,0
6197,129,128,130,130,139,126,130,128,0
6200,126,129,126,127,128,130,129,128,0
6203,128,128,126,127,127,129,130,128,0
6207,131,124,128,127,125,125,128,128,0
6210,127,127,131,131,132,127,128,125,0
6212,131,126,129,128,126,129,127,128,0
6215,128,128,127,125,127,129,130,129,0
6218,128,127,128,124,123,126,126,126,0
6220,123,125,128,129,128,126,127,128,0
6223,126,129,128,129,127,129,128,129,0
6226,132,128,131,128,127,127,125,126,0
6229,125,128,127,127,125,127,127,127,0
6231,125,127,128,126,126,128,130,126,0
6234,129,127,126,128,130,129,132,129,0
6238,127,128,125,126,130,128,129,127,0
6241,125,127,127,125,127,123,124,127,0
6244,128,127,130,129,135,126,129,128,0
6250,128,127,130,129,128,129,126,127,0
6257,129,128,127,129,131,130,129,128,0
6262,126,126,127,126,126,127,130,126,0
6265,128,126,127,128,132,126,130,129,0
6269,128,127,126,128,124,129,129,128,0
6273,127,128,126,129,132,128,127,127,0
6277,128,128,126,128,126,128,128,126,0
6280,123,128,129,125,123,127,125,127,0
6283,128,128,127,127,130,129,130,129,0
6286,129,128,128,129,128,129,130,128,0
6290,128,127,126,127,126,127,127,128,0
6293,123,126,128,127,124,126,126,126,0
6299,129,127,126,127,127,127,127,127,0
6301,126,128,126,128,132,129,129,129,0
6304,126,128,127,128,127,123,126,127,0
6308,128,127,128,127,124,125,129,129,0
6312,127,129,128,130,136,127,129,127,0
6315,128,128,128,128,129,129,127,127,0
6318,129,127,131,129,129,127,128,128,0
6321,129,128,128,129,135,127,131,128,0
6324,126,128,128,129,126,129,128,128,0
6327,130,129,129,129,128,128,127,127,0
6330,127,129,127,125,126,129,126,127,0
6333,123,127,127,126,122,127,127,127,0
6337,126,127,126,125,128,130,129,129,0
6341,128,129,127,127,127,127,126,128,0
6344,129,127,128,128,125,127,124,126,0
6347,125,127,129,130,133,126,131,128,0
6350,126,127,130,130,132,125,126,127,0
6354,128,128,126,127,128,129,128,129,0
6360,130,128,128,128,128,128,126,125,0
6363,125,127,127,127,128,126,130,128,0
6369,128,127,128,126,125,130,131,129,0
6374,128,128,126,127,129,129,127,127,0
6381,126,127,126,126,125,129,126,127,0
6385,131,127,127,125,123,128,126,126,0
6388,127,127,127,126,124,127,125,127,0
6391,128,128,126,128,130,128,127,128,0
6394,125,129,125,128,125,127,127,128,0
6398,126,127,127,125,126,123,128,127,0
6401,127,128,129,129,133,127,128,128,0
6404,126,127,130,129,128,129,128,128,0
6407,128,128,125,125,128,129,127,128,0
6410,128,127,127,126,123,127,124,127,0
6413,129,128,128,128,125,124,124,128,0
6418,126,128,127,128,130,129,130,128,0
6421,128,128,126,127,125,125,125,126,0
6424,127,127,128,127,123,124,126,126,0
6427,126,126,128,128,125,128,127,127,0
6430,129,128,128,128,128,127,125,126,0
6433,129,128,128,127,128,130,127,128,0
6437,125,127,127,126,125,124,125,126,0
6440,124,127,130,130,139,128,134,128,0
6450,128,128,126,129,130,129,128,128,0
6454,128,128,126,128,127,129,128,130,0
6459,127,128,126,123,125,123,127,127,0
6462,130,124,129,129,135,128,130,128,0
6466,128,128,127,127,126,129,127,128,0
6469,133,127,127,127,125,129,128,128,0
6472,131,126,127,128,127,128,126,126,0
6476,126,127,127,128,125,128,127,128,0
6483,129,128,127,127,126,127,126,128,0
6486,128,128,129,128,127,126,125,127,0
6492,127,127,129,130,127,125,127,128,0
6496,127,127,130,128,133,128,130,128,0
6499,127,127,126,122,126,129,131,130,0
6502,127,129,126,128,126,129,131,130,0
6506,128,128,126,126,122,126,124,127,0
6509,129,126,128,128,124,128,127,128,0
6512,131,129,129,126,127,128,125,129,0
6516,129,128,128,129,129,128,126,127,0
6520,127,127,128,128,124,126,124,126,0
6523,130,127,128,129,136,127,130,128,0
6527,127,128,128,128,124,129,128,129,0
6529,129,128,128,128,127,129,125,128,0
6532,129,127,127,129,128,128,127,127,0
6535,126,126,127,126,124,126,125,125,0
6538,125,127,126,127,128,129,132,129,0
6541,128,129,126,127,127,128,127,128,0
6544,128,127,126,127,126,128,128,127,0
6546,124,126,130,131,133,127,130,128,0
6549,129,128,129,131,130,127,127,128,0
6551,128,128,126,129,127,129,128,128,0
6554,130,128,127,124,124,128,127,128,0
6557,126,126,127,130,134,127,130,127,0
6560,126,127,129,127,126,128,126,128,0
6563,129,128,125,129,132,129,128,128,0
6565,128,128,126,127,129,130,127,127,0
6568,121,128,127,128,123,128,125,126,0
6571,127,128,127,127,124,128,125,127,0
6574,129,128,128,128,131,128,127,128,0
6577,127,127,126,129,129,128,126,127,0
6580,123,127,127,126,123,127,128,127,0
6583,126,127,129,129,134,126,128,126,0
6586,129,129,130,127,131,129,129,129,0
6592,126,127,126,126,127,128,127,127,0
6599,131,127,126,127,123,126,126,126,0
6602,123,127,127,126,126,128,127,128,0
6605,129,128,127,128,127,128,128,129,0
6609,128,128,126,128,126,126,126,126,0
6611,130,126,128,127,126,126,128,127,0
6614,129,127,129,129,136,127,130,129,0
6617,127,128,128,127,129,131,128,128,0
6620,127,129,126,127,131,129,128,128,0
6622,130,126,127,128,124,128,127,128,0
6625,128,128,128,127,133,127,128,128,0
6628,124,129,125,126,127,130,131,129,0
6631,129,128,128,128,126,129,126,127,0
6635,127,127,127,125,123,127,126,126,0
6638,128,126,129,129,133,127,130,128,0
6641,122,128,127,127,126,129,128,129,0
6644,128,128,128,128,127,129,126,127,0
6647,128,128,127,127,126,129,127,124,0
6651,127,125,130,125,124,126,125,127,0
6654,126,128,126,128,128,128,129,129,0
6657,127,129,125,128,127,128,131,128,0
6660,127,127,127,127,123,126,124,126,0
6663,126,126,129,128,122,124,125,127,0
6667,129,128,127,127,132,126,128,128,0
6670,127,128,126,125,130,129,130,129,0
6673,128,128,127,127,125,126,129,128,0
6676,128,128,129,130,133,126,130,128,0
6679,127,128,128,125,125,130,128,128,0
6682,129,128,130,127,132,129,129,128,0
6685,129,128,125,126,125,127,129,124,0
6688,127,127,127,125,122,128,124,125,0
6692,128,128,129,128,127,126,126,127,0
6697,129,127,130,129,131,129,128,126,0
6702,125,128,126,126,127,127,127,128,0
6706,126,127,129,129,132,128,131,128,0
6710,129,127,129,128,129,130,128,129,0
6712,128,128,126,128,125,129,128,129,0
6715,129,127,127,126,122,125,124,127,0
6718,130,127,130,126,123,126,125,127,0
6721,126,128,126,127,128,129,128,129,0
6724,128,128,127,128,128,129,128,128,0
6728,129,127,126,126,128,127,126,126,0
6731,128,126,127,128,134,127,129,128,0
6735,128,128,127,131,132,125,129,129,0
6740,128,129,127,126,129,131,129,128,0
6744,129,128,128,127,123,125,125,126,0
6751,128,127,130,125,123,126,125,127,0
6756,127,127,127,127,128,129,128,129,0
6759,128,129,126,130,127,128,130,128,0
6763,128,128,127,128,125,127,128,128,0
6766,128,126,128,127,127,126,133,128,0
6770,129,128,129,129,130,126,127,129,0
6773,132,128,125,128,128,129,127,129,0
6777,128,128,129,127,127,129,128,125,0
6780,128,127,126,129,128,126,131,127,0
6782,128,127,128,131,133,127,125,128,0
6785,129,129,126,124,132,131,128,129,0
6788,128,128,125,124,127,128,126,128,0
6791,131,125,128,126,123,127,125,125,0
6795,127,128,127,128,127,129,129,127,0
6798,126,128,126,128,131,128,127,128,0
6803,128,127,128,127,129,128,128,128,0
6806,125,127,126,126,125,127,126,126,0
6812,126,127,127,126,126,128,126,128,0
6817,130,128,127,128,129,129,127,129,0
6821,127,128,127,129,126,126,125,126,0
6823,125,127,131,130,134,127,130,127,0
6826,127,127,130,131,135,127,130,128,0
6830,127,129,126,126,127,130,129,129,0
6833,128,129,126,126,126,129,128,127,0
6836,127,127,128,129,128,125,125,127,0
6839,126,127,128,130,132,127,128,126,0
6842,130,126,129,128,127,129,127,128,0
6845,129,128,129,127,125,129,126,127,0
6853,127,127,128,125,124,128,126,127,0
6849,126,126,127,128,128,127,125,126,0
6856,128,128,126,127,130,129,129,129,0
6859,128,128,126,127,126,126,125,126,0
6863,128,128,128,126,124,123,129,128,0
6866,126,127,129,130,134,127,130,128,0
6870,127,128,127,126,127,129,126,129,0
6874,130,128,127,128,126,129,129,128,0
6878,129,128,126,126,123,126,127,126,0
6881,127,126,127,125,124,127,126,128,0
6884,128,128,126,127,125,128,128,128,0
6887,128,128,128,129,127,126,125,126,0
6890,126,127,131,128,124,126,128,127,0
6894,129,126,129,127,133,127,131,128,0
6901,127,129,125,126,129,129,128,128,0
6897,127,129,125,124,131,132,130,128,0
6903,127,127,125,125,125,128,130,123,0
6907,126,127,128,126,124,128,125,127,0
6911,128,128,130,126,128,129,127,128,0
6915,127,127,128,127,129,129,127,127,0
6921,125,126,125,127,126,127,127,127,0
6927,127,126,127,126,124,127,127,126,0
6930,128,128,127,128,126,128,128,127,0
6932,129,128,128,127,128,124,127,128,0
6935,129,127,128,129,125,123,127,127,0
6938,127,128,130,129,133,127,134,128,0
6941,127,128,130,130,133,126,128,128,0
6944,127,128,127,128,127,130,128,127,0
6949,130,127,125,127,126,128,130,127,0
6953,129,127,126,125,124,125,125,126,0
6956,123,127,127,131,134,128,128,128,0
6960,129,128,127,128,127,130,128,127,0
6963,128,128,128,128,129,128,128,125,0
6966,126,127,127,127,125,126,126,126,0
6968,127,128,126,128,125,126,128,129,0
6972,128,129,128,128,127,129,126,127,0
6975,128,128,128,128,126,128,126,127,0
6978,127,127,127,126,133,126,136,128,0
6983,126,128,129,131,132,126,128,128,0
6990,129,129,124,125,126,129,127,126,0
6986,129,128,126,127,132,130,129,129,0
6993,127,125,128,127,123,125,130,128,0
6996,128,127,129,130,133,127,125,129,0
6999,128,128,129,128,127,129,127,128,0
7003,127,128,128,127,124,128,125,126,0
7007,129,127,129,128,126,124,125,126,0
7012,126,128,128,129,130,126,126,128,0
7015,128,129,128,129,127,130,127,129,0
7018,126,128,126,125,126,130,127,127,0
7023,126,128,127,126,122,126,129,126,0
7026,127,127,129,129,133,127,128,126,0
7031,132,128,129,126,125,130,131,129,0
7036,128,128,127,126,126,128,128,128,0
7040,128,127,127,127,122,127,126,128,0
7045,120,127,126,125,126,128,126,128,0
7048,128,129,128,128,127,128,126,127,0
7051,128,127,128,128,127,127,125,127,0
7061,125,126,129,127,126,125,125,126,0
7066,127,127,125,127,124,128,127,128,0
7069,128,129,127,128,126,127,126,128,0
7073,128,128,132,130,128,126,125,127,0
7076,128,128,127,127,125,125,129,128,0
7080,128,126,130,131,134,127,129,129,0
7083,128,127,125,125,126,130,128,128,0
7086,128,127,127,129,129,130,128,128,0
7090,132,125,128,128,123,127,125,125,0
7093,125,127,131,129,132,126,129,128,0
7096,128,128,125,128,128,130,127,128,0
7100,128,128,130,130,130,130,131,128,0
7103,127,127,126,127,125,128,130,124,0
7107,124,126,127,127,129,126,127,127,0
7110,125,127,129,126,126,129,126,128,0
7112,130,127,128,126,130,130,128,128,0
7115,129,129,127,125,125,128,126,127,0
7118,123,128,128,125,124,127,125,127,0
7121,127,126,125,128,130,129,128,128,0
7124,128,128,125,129,129,128,128,128,0
7126,128,128,127,125,127,128,127,127,0
7129,123,127,127,128,135,126,131,128,0
7132,129,127,128,130,134,126,130,129,0
7135,129,129,125,127,131,127,126,127,0
7138,127,128,129,127,126,128,125,127,0
7143,124,127,127,123,124,128,126,126,0
7149,127,128,125,127,125,128,127,128,0
7152,129,129,127,128,129,129,129,128,0
7158,127,127,128,126,124,126,126,126,0
7155,128,128,127,126,128,127,127,127,0
7161,122,127,127,127,126,128,127,128,0
7165,128,129,127,128,129,130,129,128,0
7168,130,126,128,126,126,126,127,127,0
7171,128,127,128,131,139,127,130,128,0
7173,127,127,130,132,132,126,128,130,0
7177,128,129,126,124,126,129,127,128,0
7181,130,127,124,123,125,128,129,128,0
7183,130,128,130,128,123,127,126,124,0
7187,124,127,128,130,128,128,128,128,0
7191,128,129,125,127,129,129,127,128,0
7194,128,128,127,125,125,128,125,126,0
7198,124,127,128,126,123,124,126,123,0
7201,126,127,130,126,128,129,128,129,0
7204,128,129,127,129,131,127,126,127,0
7207,129,128,127,127,129,129,125,127,0
7210,127,127,127,129,131,125,131,127,0
7213,127,127,128,129,134,127,128,128,0
7217,125,128,126,129,132,130,131,128,0
7220,128,127,126,129,128,129,130,128,0
7223,126,128,127,127,125,128,126,125,0
7226,127,126,126,123,124,124,125,127,0
7229,128,129,129,129,132,129,130,128,0
7234,126,129,126,128,127,128,127,128,0
7237,126,127,127,127,125,125,129,127,0
7241,128,127,131,130,134,128,129,129,0
7245,128,127,127,129,131,131,131,129,0
7250,130,128,128,129,130,128,128,127,0
7253,127,127,125,124,122,127,127,126,0
7257,127,128,130,125,124,128,127,128,0
7262,127,129,127,128,128,129,128,128,0
7267,127,128,128,129,127,128,127,128,0
7271,129,126,126,125,126,127,127,125,0
7274,125,127,131,131,134,126,130,129,0
7276,126,126,127,128,126,129,128,129,0
7279,127,128,127,129,131,131,129,128,0
7282,132,128,127,127,123,127,124,126,0
7286,127,125,126,125,124,127,126,127,0
7290,127,128,126,129,131,129,129,129,0
7293,128,128,127,127,126,128,128,128,0
7296,129,128,126,128,127,127,126,124,0
7300,128,127,129,129,133,127,131,129,0
7303,128,128,127,129,127,129,127,128,0
7307,127,128,126,128,129,132,131,128,0
7309,128,127,127,128,126,129,126,123,0
7312,126,126,129,130,135,127,129,128,0
7315,128,127,128,127,130,129,131,128,0
7317,128,129,124,121,127,128,126,128,0
7320,128,128,128,128,125,129,127,127,0
7324,130,127,129,128,123,127,127,126,0
7328,125,126,125,128,127,129,130,129,0
7332,129,130,127,125,126,127,125,127,0
7336,126,128,128,127,125,128,125,127,0
7339,126,126,127,125,124,124,125,127,0
7344,128,128,128,127,129,129,130,129,0
7348,127,128,126,128,131,129,129,129,0
7352,125,127,127,126,127,124,125,126,0
7364,127,127,129,130,137,128,135,128,0
7367,127,128,129,131,133,126,129,130,0
7374,129,128,128,128,126,129,126,128,0
7379,130,128,127,126,124,127,127,128,0
7385,127,127,129,129,133,127,130,127,0
7390,127,127,128,129,124,130,127,128,0
7393,132,129,126,126,128,129,128,129,0
7397,128,128,127,126,123,126,124,126,0
7400,127,125,127,127,125,126,126,126,0
7403,120,127,126,127,126,128,127,129,0
7406,128,128,130,128,126,129,126,128,0
7410,130,128,130,128,126,126,125,125,0
7413,126,127,128,127,124,122,124,127,0
7417,127,127,131,131,133,127,128,128,0
7421,128,129,125,125,132,128,128,128,0
7424,126,128,128,129,128,128,127,127,0
7426,125,127,126,127,124,127,126,127,0
7430,129,127,128,129,123,127,128,129,0
7433,129,128,127,127,129,129,129,129,0
7436,125,127,125,128,125,128,127,126,0
7439,127,126,130,126,131,126,131,128,0
7442,129,127,129,130,134,127,129,127,0
7445,125,128,128,126,128,129,127,128,0
7448,129,128,129,128,128,128,127,126,0
7451,125,127,129,128,126,123,127,126,0
7456,126,127,132,130,133,127,126,129,0
7460,130,128,126,126,128,130,128,128,0
7462,128,129,126,126,128,129,128,128,0
7465,125,127,126,125,126,124,125,126,0
7469,126,127,126,129,130,124,128,128,0
7473,130,128,126,126,130,129,127,128,0
7476,127,128,129,128,125,127,125,127,0
7481,131,127,129,126,123,126,124,126,0
7484,126,127,127,128,125,129,127,129,0
7489,129,128,126,127,127,127,128,128,0
7494,128,128,127,128,129,127,127,128,0
7498,127,127,127,127,126,127,128,127,0
7501,120,127,127,127,125,128,128,128,0
7504,127,129,125,128,126,127,126,128,0
7506,128,128,129,128,127,124,125,127,0
7511,129,128,127,127,128,127,131,127,0
7514,127,128,129,130,132,127,131,129,0
7518,128,127,129,129,128,129,127,128,0
7521,130,127,129,128,130,128,129,128,0
7526,129,128,126,125,125,128,127,125,0
7529,124,127,127,124,124,125,128,128,0
7532,126,127,126,128,132,130,129,128,0
7535,128,127,125,128,129,130,129,128,0
7540,128,128,128,128,125,128,126,125,0
7544,127,127,128,125,126,125,125,126,0
7547,127,129,128,129,131,129,129,129,0
7549,125,128,125,128,127,128,128,129,0
7552,129,127,129,127,125,127,126,126,0
7555,128,127,128,126,127,127,135,128,0
7557,128,127,128,130,130,127,125,128,0
7560,128,128,127,129,132,130,129,129,0
7563,127,128,126,126,123,126,126,127,0
7566,128,127,129,131,133,126,130,128,0
7569,129,127,129,130,124,129,131,129,0
7572,129,128,126,127,127,129,126,128,0
7575,129,128,127,125,124,126,125,124,0
7582,127,128,129,125,122,127,126,127,0
7584,127,127,126,128,126,128,128,129,0
7587,129,128,128,128,126,127,125,127,0
7592,129,127,126,129,127,129,125,125,0
7597,126,127,130,129,133,126,129,127,0
7602,127,127,131,130,128,131,128,127,0
7605,128,128,126,126,128,128,129,127,0
7607,129,126,127,126,126,131,130,127,0
7611,122,128,128,128,126,127,131,127,0
7614,127,127,129,130,134,125,131,129,0
7620,128,129,126,128,129,129,129,129,0
7626,129,127,129,126,124,127,124,125,0
7630,130,127,128,127,122,127,127,126,0
7634,129,128,127,125,125,128,127,128,0
7637,127,128,127,128,126,128,127,128,0
7640,128,128,128,128,123,127,125,127,0
7643,126,128,130,128,123,127,126,127,0
7646,123,127,129,131,136,127,127,126,0
7650,129,128,127,127,126,130,128,129,0
7653,131,128,127,126,125,126,125,125,0
7656,126,128,127,126,124,125,129,128,0
7664,128,127,129,131,134,128,127,129,0
7669,128,128,126,126,133,130,128,129,0
7674,128,127,126,126,130,128,128,127,0
7678,127,127,126,127,125,128,126,126,0
7682,127,127,127,125,123,126,124,127,0
7685,127,128,127,127,130,129,130,128,0
7689,127,129,126,128,126,127,125,126,0
7692,130,127,129,126,124,123,125,126,0
7695,124,127,126,126,125,129,127,128,0
7698,130,128,128,128,128,128,127,127,0
7701,128,129,128,128,126,129,126,127,0
7704,126,128,126,127,126,124,130,128,0
7706,129,127,128,130,135,128,129,129,0
7710,128,127,127,127,126,129,126,128,0
7714,129,128,126,126,125,127,125,127,0
7719,131,127,128,128,124,127,126,128,0
7723,123,127,128,129,135,128,129,128,0
7725,127,128,128,126,127,130,127,128,0
7728,129,128,126,125,126,129,131,128,0
7731,128,128,126,126,122,125,125,124,0
7734,125,124,129,128,127,124,126,127,0
7737,126,127,125,128,131,129,131,130,0
7739,128,128,126,128,128,129,128,128,0
7742,128,127,128,126,122,125,125,125,0
7746,125,127,127,125,123,127,125,126,0
7749,123,128,130,127,129,127,127,129,0
7751,126,128,126,128,130,129,130,129,0
7754,126,128,126,127,127,127,127,127,0
7758,126,126,131,130,134,127,130,127,0
7762,128,128,130,130,130,128,127,128,0
7766,129,128,126,128,129,130,128,127,0
7770,128,128,127,127,126,129,128,127,0
7773,125,127,128,128,128,126,128,128,0
7777,128,128,128,130,126,130,132,128,0
7781,129,128,129,127,131,129,127,128,0
7784,128,128,126,126,124,127,126,127,0
7787,128,127,127,124,122,127,127,126,0
7791,125,127,129,125,128,129,126,128,0
7795,129,128,126,126,129,129,130,129,0
7797,129,128,126,126,123,125,126,127,0
7802,128,127,128,130,133,126,129,129,0
7805,127,127,128,128,124,128,126,129,0
7808,129,129,131,130,127,129,126,128,0
7811,128,128,127,126,130,130,128,127,0
7817,128,126,126,127,122,127,126,126,0
7822,129,127,128,127,129,128,128,127,0
7826,128,127,126,128,129,129,130,129,0
7832,127,128,125,127,126,128,126,127,0
7837,125,127,128,126,124,126,124,126,0
7840,126,126,127,128,128,126,127,128,0
7845,127,128,126,129,130,129,128,128,0
7849,128,128,128,129,128,126,126,127,0
7852,123,128,127,129,139,128,132,128,0
7855,134,127,129,130,134,127,128,129,0
7858,127,129,126,127,129,129,128,130,0
7862,128,128,128,127,126,129,128,129,0
7865,126,127,127,127,123,128,128,128,0
7868,128,127,129,128,133,126,129,128,0
7871,128,128,126,126,128,130,128,128,0
7874,128,128,126,127,124,128,125,127,0
7878,127,126,127,127,125,128,125,125,0
7881,126,127,127,126,125,128,128,128,0
7883,127,128,124,128,129,129,128,129,0
7887,129,128,128,128,125,127,125,126,0
7893,127,126,128,128,122,126,130,127,0
7895,127,126,131,132,134,127,127,126,0
7899,132,128,128,127,127,128,127,129,0
7903,128,128,129,128,128,129,128,128,0
7907,129,126,127,128,125,127,126,126,0
7910,129,126,127,125,123,128,126,128,0
7913,128,130,128,127,124,128,126,127,0
7917,128,128,129,126,130,126,125,127,0
7920,125,128,130,129,130,127,132,128,0
7923,126,126,128,130,134,127,129,128,0
7927,129,128,126,125,126,130,127,128,0
7930,127,128,127,126,125,128,125,127,0
7933,128,126,127,127,125,128,127,126,0
7939,125,127,129,129,131,127,130,129,0
7946,126,128,125,125,130,128,128,128,0
7950,127,128,129,126,128,129,127,127,0
7953,129,128,126,126,126,128,130,127,0
7956,127,126,128,129,131,127,130,128,0
7965,125,128,125,127,126,129,131,128,0
7969,127,128,126,130,129,129,128,130,0
7972,127,127,126,127,122,125,124,124,0
7976,129,126,129,127,122,127,125,128,0
7979,129,128,127,127,128,129,129,130,0
7983,130,128,126,127,127,129,130,129,0
7986,127,129,126,126,128,127,128,125,0
7990,125,127,129,130,132,127,130,128,0
7993,127,127,129,130,127,129,128,130,0
7997,126,129,128,127,127,128,128,129,0
8000,129,128,128,126,123,127,125,127,0
8003,130,127,127,125,124,123,125,127,0
8007,126,128,128,128,130,130,129,129,0
8010,128,128,125,126,127,128,128,129,0
8013,132,127,127,127,124,128,128,128,0
8017,129,127,128,129,134,127,132,128,0
8021,126,128,128,128,123,129,128,129,0
8027,128,129,127,127,126,129,130,129,0
8033,127,128,126,126,126,129,129,127,0
8037,126,127,127,128,122,126,126,128,0
8041,127,127,128,127,125,128,126,127,0
8044,129,127,129,128,126,129,128,127,0
8053,129,128,128,129,128,126,127,125,0
8057,126,126,129,129,131,126,131,128,0
8061,126,128,129,130,135,126,126,127,0
8065,128,128,126,126,131,128,130,128,0
8070,128,129,126,128,128,128,129,125,0
8074,126,127,127,127,124,126,127,126,0
8079,125,128,127,127,124,127,130,129,0
8083,131,128,128,128,128,126,127,129,0
8087,129,128,125,126,127,128,130,128,0
8091,127,124,129,131,133,127,130,128,0
8094,127,127,130,130,133,127,128,129,0
8097,128,128,126,126,132,129,131,129,0
8101,129,128,126,127,126,129,130,129,0
8104,126,126,126,129,129,125,128,127,0
8107,129,127,129,130,133,126,126,127,0
8111,131,128,127,127,127,129,129,129,0
8114,126,129,126,128,131,130,128,128,0
8117,126,127,126,125,123,128,126,126,0
8120,121,128,127,128,127,128,128,128,0
8123,128,128,126,127,126,128,125,128,0
8125,129,128,128,128,127,126,125,126,0
8129,129,126,127,128,123,126,126,126,0
8136,125,127,127,126,124,127,127,127,0
8141,125,128,127,129,130,129,131,129,0
8144,128,128,126,127,131,128,129,127,0
8148,124,125,128,129,135,127,132,128,0
8150,127,127,129,129,134,127,131,129,0
8153,126,128,126,127,125,129,132,129,0
8156,129,128,126,127,126,129,129,127,0
8160,131,128,128,125,124,127,125,126,0
8163,126,127,128,125,124,127,125,128,0
8165,129,128,130,129,131,128,129,129,0
8169,128,128,127,128,125,128,125,127,0
8173,130,127,127,127,125,126,124,125,0
8176,128,127,132,131,138,127,128,129,0
8180,127,129,125,125,127,130,127,128,0
8184,129,128,126,128,126,127,124,127,0
8189,128,127,130,129,127,127,127,125,0
8192,129,126,130,129,132,127,129,128,0
8195,128,127,127,128,130,129,125,129,0
8198,129,128,128,127,127,129,127,128,0
8201,129,128,128,126,122,125,125,127,0
8203,128,126,128,130,128,125,125,126,0
8206,125,127,128,126,125,129,127,128,0
8209,129,128,128,128,128,129,125,128,0
8212,126,127,130,128,126,128,125,127,0
8215,129,127,128,127,121,126,125,128,0
8218,126,127,129,127,126,128,125,127,0
8221,128,127,128,128,131,129,128,130,0
8224,129,128,127,127,125,124,123,126,0
8226,128,127,130,130,132,127,129,128,0
8229,128,127,129,130,133,127,125,128,0
8232,127,128,127,128,129,130,127,128,0
8234,128,128,126,126,130,129,129,125,0
8240,131,127,128,125,124,125,128,128,0
8243,129,127,128,130,128,129,128,129,0
8246,128,130,127,129,128,128,127,129,0
8249,130,127,126,126,123,126,126,128,0
8252,130,126,127,127,121,126,124,126,0
8255,127,128,127,126,128,128,125,128,0
8258,127,128,127,128,128,129,126,128,0
8269,129,128,127,128,128,128,125,127,0
8272,126,127,128,128,123,127,126,126,0
8275,127,128,128,131,134,127,129,129,0
8286,126,128,126,127,127,129,127,128,0
8290,130,128,130,127,128,129,126,126,0
8295,128,128,128,128,132,126,129,128,0
8302,129,128,129,130,134,128,125,128,0
8307,129,128,128,129,126,129,127,128,0
8311,128,128,130,129,127,130,128,126,0
8314,123,127,126,126,122,127,126,126,0
8318,126,128,127,127,124,128,126,127,0
8322,128,128,127,129,128,128,126,127,0
8325,129,129,129,129,126,127,126,126,0
8329,124,128,127,127,124,127,128,127,0
8332,127,127,127,129,132,126,127,128,0
8335,126,128,126,128,128,130,130,129,0
8339,128,128,126,126,127,129,129,128,0
8342,129,127,126,125,124,127,126,125,0
8345,127,128,128,127,124,124,127,128,0
8349,130,129,127,128,128,128,127,127,0
8352,126,128,128,128,130,129,127,127,0
8356,124,128,126,126,126,127,126,127,0
8359,125,127,128,130,134,127,130,129,0
8363,127,128,128,126,129,130,128,128,0
8366,130,128,128,128,125,126,125,126,0
8369,128,127,126,125,125,127,126,126,0
8372,124,126,128,129,125,124,128,127,0
8375,126,127,127,128,127,129,129,129,0
8378,129,128,127,127,130,129,127,127,0
8381,129,128,127,127,124,127,127,127,0
8384,129,127,129,128,132,128,130,128,0
8387,127,128,126,126,129,131,130,129,0
8391,128,127,128,128,126,129,126,128,0
8394,129,128,131,127,123,125,125,127,0
8397,130,127,127,125,125,125,126,128,0
8400,122,127,127,127,131,128,129,129,0
8404,127,128,125,127,127,127,129,128,0
8408,128,128,128,128,124,125,126,125,0
8412,128,127,128,126,125,125,130,128,0
8417,127,128,128,130,130,127,127,128,0
8421,128,129,126,128,129,129,132,128,0
8424,124,128,127,127,123,126,129,125,0
8427,127,126,131,128,133,127,132,128,0
8430,128,128,128,128,128,129,127,127,0
8433,130,128,129,127,129,128,128,129,0
8437,127,128,126,125,125,128,126,126,0
8441,121,128,127,125,124,126,124,124,0
8444,126,128,126,127,124,127,126,128,0
8447,129,128,128,128,126,129,126,127,0
8450,128,127,128,129,124,126,127,128,0
8453,128,127,128,129,133,127,128,128,0
8456,127,128,129,130,134,128,126,129,0
8459,129,128,125,127,126,130,129,128,0
8463,129,127,127,128,125,128,126,127,0
8466,128,127,128,125,123,127,127,125,0
8470,121,127,127,127,125,127,129,129,0
8475,129,128,126,128,126,128,127,128,0
8480,128,128,128,127,127,126,125,125,0
8482,128,125,129,131,133,126,129,128,0
8486,127,128,129,131,132,127,127,127,0
8490,129,128,128,126,131,130,129,129,0
8493,129,127,126,127,127,128,128,127,0
8498,128,126,126,128,123,127,126,127,0
8501,127,129,127,127,125,126,126,127,0
8505,126,128,127,128,131,130,127,128,0
8508,127,128,126,127,129,128,124,126,0
8512,127,127,129,129,134,126,130,127,0
8516,128,126,130,130,133,126,126,127,0
8521,129,128,126,127,127,129,130,128,0
8526,129,128,126,125,128,129,131,128,0
8530,127,128,127,127,123,128,126,123,0
8533,124,127,129,130,129,124,128,128,0
8537,128,129,125,125,129,129,128,129,0
8540,129,128,125,126,125,127,127,128,0
8543,131,126,127,126,126,128,126,127,0
8546,126,126,129,130,129,125,129,128,0
8550,129,128,126,127,131,130,129,129,0
8553,128,128,126,126,129,129,128,128,0
8556,129,127,129,127,123,124,128,127,0
8560,127,127,129,130,133,126,130,128,0
8563,125,126,129,129,129,130,130,129,0
8574,129,128,125,125,129,129,127,127,0
8579,124,127,126,125,125,128,125,127,0
8582,125,127,126,125,126,128,127,128,0
8586,128,129,126,128,127,128,126,128,0
8590,128,128,127,127,130,127,127,127,0
8593,126,127,127,128,125,128,127,124,0
8597,126,127,128,127,131,127,130,128,0
8600,126,129,129,130,132,129,130,128,0
8603,128,128,128,129,128,129,127,127,0
8606,127,127,127,128,124,128,126,126,0
8610,127,125,128,129,133,126,130,128,0
8613,129,127,127,127,125,130,129,129,0
8618,130,128,128,127,128,128,127,128,0
8625,130,128,130,126,123,126,124,127,0
8629,128,127,127,125,126,128,126,127,0
8632,126,128,126,128,127,129,126,128,0
8636,127,128,127,128,129,130,129,128,0
8642,127,127,127,127,126,123,127,128,0
8647,121,126,128,126,124,125,130,128,0
8651,128,127,130,132,131,125,129,129,0
8654,128,128,128,128,126,129,126,127,0
8658,128,127,129,125,124,125,125,127,0
8661,128,127,127,127,124,126,127,128,0
8664,127,128,125,126,128,130,131,130,0
8668,130,128,128,127,128,128,126,127,0
8671,127,127,128,129,128,124,128,127,0
8674,128,127,129,130,132,127,133,128,0
8677,128,127,128,129,128,132,128,128,0
8681,128,129,128,127,132,130,129,128,0
8684,128,128,126,126,125,128,126,126,0
8687,128,128,128,125,121,124,126,127,0
8691,128,128,126,128,128,129,129,128,0
8694,127,128,126,127,126,127,127,129,0
8698,129,128,129,128,126,129,127,126,0
8701,129,126,127,129,134,126,132,128,0
8703,127,127,129,131,135,128,128,128,0
8706,127,129,127,127,128,128,128,128,0
8710,128,128,127,129,130,128,128,128,0
8713,127,127,125,126,123,127,126,127,0
8716,127,127,128,129,124,125,125,127,0
8719,127,128,129,130,131,129,128,128,0
8722,128,128,125,130,128,127,125,126,0
8724,126,127,128,130,133,126,130,128,0
8729,128,126,131,130,134,128,127,128,0
8732,128,128,126,126,128,129,127,129,0
8736,127,128,126,125,131,128,130,128,0
8739,129,128,127,125,125,126,127,127,0
8743,127,128,128,126,125,128,128,129,0
8747,126,128,125,127,128,129,129,129,0
8752,129,128,127,127,126,126,124,126,0
8757,126,127,129,130,133,126,131,128,0
8761,127,127,128,130,132,128,126,127,0
8763,129,128,126,128,124,129,131,129,0
8767,130,128,127,128,124,127,127,126,0
8770,128,125,127,126,126,124,129,126,0
8773,126,128,130,129,128,125,125,127,0
8778,132,129,127,127,127,129,129,129,0
8781,129,129,127,127,126,128,127,128,0
8789,127,128,131,126,122,125,127,124,0
8794,125,127,128,128,133,127,126,126,0
8797,128,128,127,128,127,129,130,129,0
8800,129,128,125,126,126,128,128,128,0
8803,129,127,130,128,122,126,125,124,0
8807,126,126,131,126,123,128,124,126,0
8811,130,128,125,126,130,130,129,129,0
8814,127,129,126,127,127,128,127,128,0
8817,129,127,128,128,124,123,126,127,0
8820,126,127,128,131,132,126,130,129,0
8825,127,128,127,128,127,129,126,129,0
8829,130,128,129,128,129,129,128,128,0
8832,127,128,126,126,124,128,127,125,0
8835,127,127,127,127,122,128,125,126,0
8839,128,128,128,128,128,129,129,129,0
8842,129,128,126,129,130,128,129,128,0
8845,128,128,127,127,125,126,126,127,0
8849,121,128,131,131,136,128,134,128,0
8860,128,127,127,127,125,128,128,128,0
8865,130,128,130,128,127,128,128,127,0
8871,129,127,125,126,124,129,124,127,0
8889,127,125,127,124,123,127,125,128,0
8892,126,127,125,126,125,127,126,127,0
8897,128,129,128,129,130,126,127,127,0
8901,131,127,127,125,126,127,125,126,0
8904,128,127,131,131,137,128,134,128,0
8907,127,128,130,130,125,129,127,128,0
8910,128,127,131,128,126,128,129,129,0
8913,129,128,128,128,124,128,125,124,0
8917,125,126,126,125,124,127,126,128,0
8920,127,128,128,128,127,128,127,128,0
8923,128,129,126,127,126,127,127,128,0
8927,128,128,129,128,125,126,126,125,0
8930,123,126,130,130,135,127,130,128,0
8933,128,127,128,129,131,124,127,128,0
8936,129,129,129,128,126,128,128,129,0
8940,130,127,127,127,124,129,125,126,0
8943,127,127,127,125,123,128,126,125,0
8947,127,128,126,127,128,128,130,129,0
8951,128,128,126,127,131,129,129,128,0
8954,127,128,125,127,126,128,128,127,0
8956,127,127,128,127,124,125,129,128,0
8959,127,127,130,130,135,126,127,128,0
8962,129,128,126,128,128,129,132,128,0
8966,127,128,126,127,125,129,128,129,0
8972,128,126,126,127,121,128,128,127,0
8976,128,127,131,130,132,126,125,128,0
8979,129,128,128,128,127,128,127,129,0
8983,127,128,128,128,125,127,124,126,0
8986,133,125,130,125,123,126,126,127,0
8989,127,129,130,125,123,126,126,127,0
8993,127,129,128,128,127,129,126,128,0
8996,128,128,128,127,130,128,127,129,0
9001,125,127,127,126,125,126,126,126,0
9006,128,127,130,130,133,127,131,128,0
9012,127,127,126,128,126,129,129,129,0
9015,130,128,128,128,127,128,126,127,0
9019,126,127,129,128,125,125,125,125,0
9021,122,127,127,125,123,127,126,126,0
9024,129,128,127,127,127,129,131,129,0
9028,130,129,128,130,126,126,127,128,0
9032,130,126,128,126,123,124,127,126,0
9037,127,127,128,127,136,128,131,128,0
9040,127,128,125,125,128,131,130,129,0
9044,128,129,126,127,128,129,130,129,0
9047,128,128,128,126,124,125,126,126,0
9050,127,127,132,130,132,128,132,128,0
9053,127,127,126,125,127,130,131,129,0
9056,129,128,126,126,125,129,127,128,0
9067,131,128,129,128,121,126,127,126,0
9072,129,127,131,127,125,128,127,127,0
9075,126,128,124,127,126,128,129,130,0
9078,129,128,127,128,127,126,126,127,0
9081,125,127,128,127,125,124,125,125,0
9084,124,127,128,128,123,126,127,128,0
9088,127,128,128,128,127,129,126,128,0
9091,130,128,128,129,130,128,129,126,0
9102,126,128,128,128,126,123,125,126,0
9106,127,127,131,131,137,128,134,129,0
9109,127,127,127,125,126,130,127,129,0
9113,130,129,127,127,127,128,125,127,0
9116,129,128,130,128,128,126,124,124,0
9121,131,126,127,128,123,125,128,129,0
9127,128,128,128,129,125,128,126,129,0
9130,130,129,127,127,128,129,125,127,0
9134,128,128,127,128,130,127,127,128,0
9140,128,127,129,128,123,126,125,127,0
9143,124,128,125,126,126,129,129,129,0
9146,129,129,125,128,127,128,129,128,0
9150,128,128,126,128,125,126,127,127,0
9154,123,127,128,128,130,126,129,128,0
9157,130,127,128,130,133,127,126,128,0
9160,127,130,128,127,129,129,125,128,0
9163,128,129,126,125,126,128,125,126,0
9167,125,126,127,127,122,127,126,126,0
9170,124,128,126,126,124,128,127,128,0
9173,130,129,129,128,128,127,126,128,0
9181,128,128,129,128,125,126,125,126,0
9185,127,127,128,130,132,127,132,128,0
9189,128,127,130,131,134,127,127,128,0
9192,130,128,125,125,133,130,127,129,0
9196,127,128,126,128,129,131,130,128,0
9200,130,126,127,125,124,128,126,127,0
9203,126,128,126,126,125,129,127,127,0
9206,130,128,131,129,129,129,126,127,0
9210,126,127,127,127,132,128,128,127,0
9217,121,127,127,126,124,125,126,127,0
9221,122,127,128,128,125,124,126,128,0
9224,125,129,127,128,131,130,130,129,0
9228,130,128,127,128,126,128,128,127,0
9231,128,127,129,126,124,126,128,127,0
9234,128,128,130,131,140,127,130,128,0
9238,126,128,127,127,127,130,126,127,0
9242,129,128,129,127,127,127,125,126,0
9253,127,127,130,128,129,126,130,128,0
9258,126,127,130,130,135,128,128,128,0
9261,127,128,125,126,131,128,127,128,0
9265,129,128,127,127,125,128,125,128,0
9268,130,127,127,125,123,127,125,127,0
9272,124,128,126,124,126,124,124,127,0
9275,128,129,125,126,128,129,128,129,0
9279,129,129,127,129,128,128,127,128,0
9326,128,127,128,126,123,126,126,125,0
9333,123,127,129,130,133,127,128,127,0
9339,128,128,126,128,126,128,127,129,0
9345,130,129,127,127,125,128,125,127,0
9351,128,126,131,127,122,128,124,126,0
9357,128,127,128,125,123,128,126,128,0
9393,132,129,128,128,127,129,127,127,0
9403,125,129,128,131,131,128,128,128,0
9412,124,128,127,122,127,128,128,125,0
9419,127,125,127,128,134,127,130,128,0
9424,130,127,128,130,126,128,128,129,0
9428,130,129,127,129,130,129,128,128,0
9433,127,127,126,127,125,128,127,127,0
9437,129,127,130,129,131,125,129,128,0
9441,127,128,128,128,124,130,127,129,0
9444,129,129,127,128,127,129,127,127,0
9448,129,128,127,125,124,128,127,127,0
9451,128,126,128,129,127,125,128,127,0
9454,126,127,127,126,127,128,126,128,0
9459,129,128,125,126,129,130,126,128,0
9465,130,128,127,128,126,129,126,126,0
9471,128,127,128,127,122,124,126,127,0
9475,127,127,128,127,131,128,127,127,0
9483,126,128,125,129,134,128,129,128,0
9532,128,127,126,127,127,128,128,126,0
9544,127,127,128,127,122,125,125,127,0
9554,126,127,127,128,126,129,128,129,0
9560,127,129,128,129,130,129,128,129,0
9565,126,128,126,128,127,128,129,128,0
9595,128,127,131,130,134,127,129,128,0
9614,128,128,129,129,132,126,131,129,0
9621,128,129,125,127,128,129,128,129,0
9626,129,128,128,127,125,126,123,125,0
9631,128,123,130,127,124,127,126,126,0
9634,128,128,124,126,124,128,127,128,0
9638,130,128,128,127,128,128,127,127,0
9641,128,128,125,129,127,129,128,127,0
9645,126,125,128,125,127,124,131,128,0
9648,127,128,129,129,134,127,128,128,0
9652,127,128,125,128,128,130,128,127,0
9655,129,128,130,129,128,129,128,126,0
9658,125,128,127,128,127,124,127,127,0
9662,127,128,131,130,134,126,126,127,0
9665,129,128,127,128,131,131,128,129,0
9668,130,128,128,127,126,128,124,126,0
9672,131,126,129,127,123,126,128,127,0
9676,125,128,131,131,132,127,126,129,0
9679,128,128,125,128,128,129,128,128,0
9682,129,128,127,126,126,128,127,127,0
9687,127,128,128,127,121,125,124,126,0
9692,127,125,128,126,124,128,126,128,0
9695,127,129,127,127,130,128,128,128,0
9698,126,129,128,129,127,127,127,127,0
9701,127,127,128,126,125,124,127,128,0
9708,128,129,127,128,128,128,125,128,0
9704,128,127,132,129,131,126,125,126,0
9713,128,128,127,127,124,127,125,126,0
9717,125,127,127,128,125,125,124,126,0
9723,126,127,127,125,124,127,124,127,0
9727,128,128,126,128,131,129,129,128,0
9732,126,129,127,130,130,127,129,128,0
9735,124,126,127,128,126,126,124,126,0
9741,128,123,130,129,132,127,129,128,0
9745,127,128,129,128,129,129,127,128,0
9748,130,128,128,127,127,128,125,127,0
9752,127,128,127,128,125,129,126,126,0
9755,125,125,131,130,132,127,128,128,0
9759,127,128,127,128,131,130,129,129,0
9763,127,128,126,128,128,130,126,128,0
9767,130,128,128,126,124,128,126,125,0
9800,126,126,129,130,128,125,127,127,0
9808,124,128,126,127,125,129,128,128,0
9818,129,127,127,128,129,129,127,128,0
9822,126,127,126,128,125,127,125,126,0
9830,124,127,130,129,132,127,131,129,0
9870,126,127,128,126,130,130,130,129,0
9892,128,129,126,126,128,130,126,127,0
9898,127,128,126,125,126,128,127,126,0
9904,127,127,127,127,124,125,124,126,0
9909,129,128,126,128,130,128,130,129,0
9912,129,128,128,129,127,127,130,129,0
9915,128,128,126,128,126,127,128,127,0
9919,127,126,130,129,131,126,129,128,0
9922,127,128,128,129,125,128,129,129,0
9925,127,129,127,127,128,128,126,127,0
9928,131,128,128,127,124,127,124,127,0
9932,123,127,127,125,124,127,126,127,0
9935,129,129,127,126,125,127,125,127,0
9939,125,129,127,129,131,129,129,129,0
9942,129,128,126,127,126,128,124,126,0
9946,129,126,127,127,127,127,132,128,0
9949,126,127,130,133,132,127,129,129,0
9952,123,128,127,128,130,130,130,129,0
9955,129,128,126,128,126,128,124,126,0
9959,126,126,127,126,123,126,126,127,0
9962,124,127,127,128,125,128,126,127,0
9965,126,128,126,130,129,128,130,129,0
9968,126,129,126,127,126,127,128,128,0
9971,127,126,127,125,125,127,126,126,0
9975,129,127,128,130,136,127,130,128,0
9978,127,129,126,127,130,130,130,129,0
9981,126,128,125,127,125,129,126,128,0
9984,130,125,128,129,129,127,132,128,0
9988,128,127,129,128,133,127,127,129,0
9991,129,129,125,128,127,128,128,129,0
9995,130,128,125,127,126,128,126,127,0
9998,127,127,127,127,125,127,126,127,0
10002,126,127,127,124,125,128,126,129,0
10005,131,128,127,127,127,128,125,127,0
10009,127,128,128,128,127,126,125,126,0
10013,126,126,128,126,125,125,125,125,0
10016,125,127,128,127,124,128,127,128,0
10019,129,128,128,128,129,127,127,127,0
10023,125,127,128,128,130,129,126,127,0
10026,126,126,130,131,136,126,130,128,0
10029,127,127,131,130,134,127,130,128,0
10033,128,127,126,126,127,130,128,127,0
10036,129,128,128,128,125,127,127,128,0
10069,130,126,128,128,124,126,127,127,0
10073,127,127,131,128,134,127,129,128,0
10079,123,129,129,126,124,129,131,128,0
10082,133,126,129,130,129,129,127,127,0
10086,127,128,130,122,124,127,128,126,0
10138,127,127,128,127,126,126,126,125,0
10147,128,128,126,128,127,129,128,128,0
10162,127,128,126,127,128,128,129,129,0
10169,127,127,127,127,122,123,127,126,0
10174,126,126,129,126,124,127,127,128,0
10178,129,128,126,128,129,129,130,129,0
10182,128,128,127,128,127,126,126,127,0
10185,130,127,129,128,127,123,128,127,0
10189,127,127,130,130,134,127,130,127,0
10193,128,127,128,125,127,130,129,129,0
10196,128,128,127,130,129,129,129,129,0
10200,127,128,126,127,122,125,126,128,0
10204,129,127,128,130,132,127,129,128,0
10209,127,127,129,131,124,129,127,128,0
10215,128,129,129,129,127,129,127,127,0
10218,129,127,128,127,125,128,129,127,0
10222,125,126,127,127,122,125,130,128,0
10225,129,127,128,128,129,129,128,129,0
10228,128,128,126,127,128,130,129,129,0
10232,129,128,127,128,129,128,130,127,0
10235,125,126,126,128,122,126,126,127,0
10238,126,127,127,129,126,128,127,129,0
10242,127,128,126,127,129,129,127,129,0
10245,128,128,126,126,125,127,127,127,0
10248,128,127,127,129,133,127,132,127,0
10251,128,127,129,130,132,125,128,128,0
10255,129,129,128,127,126,129,128,128,0
10258,129,128,130,126,125,126,124,125,0
10261,130,127,128,128,124,123,127,127,0
10265,128,127,130,131,132,126,129,128,0
10268,128,129,125,124,129,129,129,129,0
10271,128,129,126,127,124,126,123,126,0
10275,131,125,131,128,121,125,126,127,0
10278,129,128,128,127,124,127,125,128,0
10282,128,129,127,128,128,129,127,128,0
10285,128,127,127,128,127,128,126,126,0
10289,125,127,128,128,126,122,126,127,0
10292,127,127,130,130,134,127,127,127,0
10295,124,129,125,128,131,128,126,128,0
10298,127,128,130,127,128,128,128,127,0
10301,129,127,128,128,123,126,124,126,0
10306,125,128,127,125,128,126,127,129,0
10310,126,128,125,127,126,129,128,129,0
10314,130,128,127,127,127,128,127,128,0
10320,128,127,127,126,124,126,126,127,0
10326,125,126,129,131,135,128,130,128,0
10335,130,128,129,130,127,129,130,129,0
10339,131,128,127,127,127,129,129,129,0
10343,129,128,127,125,123,127,125,126,0
10346,127,127,127,126,124,126,125,127,0
10350,128,128,126,128,129,129,129,129,0
10353,130,128,128,128,125,125,126,126,0
10357,130,127,128,128,124,124,129,127,0
10360,128,126,133,133,132,129,131,128,0
10363,129,128,127,127,126,130,132,129,0
10365,131,129,125,125,125,129,126,127,0
10369,129,128,128,126,124,124,125,126,0
10372,124,127,126,124,126,128,126,128,0
10375,128,128,131,127,126,128,129,129,0
10378,131,128,128,128,127,127,126,127,0
10381,125,128,127,127,126,127,129,125,0
10384,127,127,129,129,132,127,131,129,0
10387,127,128,126,126,126,130,127,129,0
10390,129,128,126,128,126,128,128,129,0
10394,129,128,129,128,123,127,124,125,0
10398,126,127,128,129,135,127,131,129,0
10401,127,128,128,125,129,129,128,128,0
10403,129,129,125,128,131,130,130,128,0
10407,128,128,126,126,123,125,125,127,0
10410,127,127,127,127,124,127,127,127,0
10414,126,126,126,128,126,128,130,130,0
10418,130,128,126,128,127,128,128,128,0
10421,128,128,126,127,126,127,128,127,0
10426,122,127,127,127,127,126,131,128,0
10430,126,128,127,130,126,129,128,129,0
10434,129,128,129,131,129,128,127,126,0
10438,128,127,127,126,128,127,127,125,0
10444,127,127,128,129,134,126,128,128,0
10448,127,128,128,130,129,132,131,128,0
10452,129,128,125,127,128,128,127,128,0
10455,129,128,125,125,126,129,127,128,0
10460,126,127,126,124,123,127,126,127,0
10463,128,128,127,128,129,129,129,129,0
10476,127,129,126,128,127,129,128,128,0
10480,128,128,129,127,128,125,124,125,0
10485,126,127,126,127,122,125,129,127,0
10489,127,127,128,130,134,127,129,129,0
10491,130,129,127,128,127,128,130,129,0
10495,129,128,126,128,124,128,128,127,0
10499,124,128,124,126,132,127,131,128,0
10502,128,127,126,129,130,124,129,129,0
10504,129,128,127,129,128,128,127,128,0
10508,128,127,129,128,127,128,128,128,0
10512,127,126,126,125,126,123,126,127,0
10515,127,128,127,127,126,130,127,128,0
10519,128,129,125,127,130,129,130,129,0
10522,129,128,128,127,126,124,125,127,0
10526,127,127,128,127,126,123,125,126,0
10530,126,127,130,131,135,128,130,128,0
10533,129,128,128,128,127,130,129,128,0
10537,129,129,128,128,126,127,125,126,0
10540,125,127,129,127,123,126,127,126,0
10543,126,128,128,129,136,128,130,129,0
10546,129,128,125,128,127,129,127,128,0
10550,128,129,128,127,130,128,129,125,0
10553,127,126,128,128,126,123,126,127,0
10557,130,125,127,127,124,129,126,127,0
10562,129,129,126,128,126,129,128,128,0
10566,130,128,129,130,128,125,125,127,0
10571,128,127,128,129,127,124,127,128,0
10575,128,127,129,131,139,126,129,128,0
10579,124,128,131,130,129,129,126,129,0
10581,128,129,128,128,125,128,127,127,0
10584,128,126,128,126,123,127,126,126,0
10587,127,127,131,130,132,127,129,128,0
10590,128,127,126,125,127,129,128,128,0
10592,130,127,128,127,132,128,127,128,0
10595,127,128,126,125,126,129,128,125,0
10598,126,127,127,127,125,128,127,128,0
10600,126,127,125,127,127,128,125,128,0
10603,127,127,128,127,130,128,127,128,0
10607,125,126,126,126,127,124,124,125,0
10610,125,127,129,130,131,127,130,128,0
10613,127,128,126,126,126,129,129,129,0
10617,128,127,126,128,126,129,128,128,0
10621,130,128,130,128,123,124,127,127,0
10624,124,127,131,128,131,127,130,129,0
10627,127,127,128,127,124,128,129,129,0
10629,127,128,126,129,127,129,129,128,0
10632,130,126,126,124,124,128,126,127,0
10635,130,128,128,125,123,126,127,128,0
10639,130,128,126,126,127,128,128,128,0
10642,125,128,127,127,127,128,129,128,0
10644,128,127,126,127,126,128,126,125,0
10647,125,126,127,126,133,126,131,129,0
10650,127,127,129,130,129,130,129,128,0
10654,130,127,127,126,127,129,128,128,0
10657,128,129,127,129,126,128,125,126,0
10660,126,127,127,125,123,125,126,127,0
10664,127,127,126,127,126,128,128,129,0
10668,128,128,126,128,126,127,128,129,0
10674,128,128,127,127,125,125,125,126,0
10680,127,126,127,127,127,128,136,128,0
10684,128,128,128,131,132,128,129,130,0
10687,128,129,125,128,126,129,127,129,0
10690,131,128,129,127,124,124,125,126,0
10693,128,128,129,130,126,126,129,128,0
10696,128,127,129,130,131,126,131,129,0
10701,127,128,126,128,129,130,128,128,0
10704,129,128,128,128,128,129,130,126,0
10707,126,126,127,129,130,126,129,127,0
10710,127,127,126,127,126,129,126,128,0
10713,129,128,127,127,130,128,129,128,0
10717,128,128,126,127,128,128,127,128,0
10720,131,127,129,127,120,124,126,127,0
10723,128,128,127,127,127,128,128,129,0
10726,128,129,128,128,127,128,125,128,0
10730,128,128,128,127,127,128,126,127,0
10733,128,127,130,130,132,126,128,127,0
10737,127,128,129,129,133,127,127,126,0
10740,128,129,128,127,127,129,126,128,0
10743,130,127,126,128,127,129,128,128,0
10748,128,127,129,124,122,126,125,126,0
10752,126,126,127,124,125,129,128,129,0
10755,129,129,127,127,127,129,129,128,0
10762,128,129,128,128,125,126,126,126,0
10768,128,127,130,128,125,124,125,127,0
10773,126,127,128,127,124,126,128,128,0
10777,130,128,127,128,129,129,129,128,0
10781,128,128,126,129,129,128,128,127,0
10787,124,126,128,127,125,126,127,128,0
10791,127,128,129,132,138,128,129,128,0
10797,127,128,126,129,129,130,129,128,0
10800,127,128,127,128,128,130,129,128,0
10804,127,127,126,125,124,126,127,127,0
10807,126,128,127,128,126,127,128,125,0
10810,128,128,126,128,126,129,129,129,0
10813,129,128,128,128,127,127,125,128,0
10817,129,127,127,126,126,127,127,126,0
10820,127,127,130,131,134,128,130,129,0
10823,127,128,128,128,128,128,127,128,0
10826,129,129,127,127,128,128,127,127,0
10829,129,129,129,125,124,125,125,124,0
10832,125,127,129,130,133,126,130,128,0
10835,127,127,127,125,127,130,129,128,0
10838,127,128,127,128,128,129,127,128,0
10841,129,127,127,128,126,128,128,127,0
10844,130,126,126,127,123,129,126,128,0
10847,128,127,125,126,128,129,130,128,0
10851,127,128,127,128,129,128,129,128,0
10855,132,126,129,127,125,127,127,128,0
10858,120,127,128,125,127,126,129,128,0
10861,126,128,128,129,133,125,128,129,0
10864,128,128,126,126,127,129,127,128,0
10866,130,128,129,126,126,126,126,126,0
10870,127,126,129,130,133,126,129,127,0
10873,127,127,128,127,131,130,129,129,0
10876,128,128,126,126,129,129,126,128,0
10880,128,128,127,126,124,128,125,125,0
10883,127,127,128,128,123,126,126,127,0
10888,127,128,128,126,125,126,126,128,0
10891,128,128,128,128,127,128,126,128,0
10895,126,128,126,127,127,128,129,125,0
10900,121,127,127,127,123,125,125,126,0
10906,122,126,127,126,128,128,131,128,0
10909,128,128,125,128,128,128,128,128,0
10912,131,128,128,128,125,125,125,127,0
10916,127,128,130,130,134,127,130,128,0
10919,128,128,129,128,134,128,127,129,0
10922,128,128,127,128,127,130,131,128,0
10927,128,127,128,127,124,128,125,126,0
10930,130,127,129,127,124,125,127,127,0
10933,131,126,128,130,129,125,128,129,0
10936,126,130,125,129,127,129,128,129,0
10940,128,128,126,127,124,128,125,127,0
10942,129,127,127,125,122,126,125,124,0
10945,127,127,126,121,127,129,128,129,0
10949,128,128,127,128,127,129,126,130,0
10951,129,128,126,127,126,127,126,127,0
10954,128,127,129,131,135,127,130,128,0
10957,128,127,129,129,134,127,127,126,0
10961,131,128,127,128,132,130,131,129,0
10965,127,128,127,127,126,128,131,128,0
10969,127,127,127,126,124,127,128,127,0
10972,126,126,129,130,134,126,128,128,0
10976,124,128,130,126,127,129,127,127,0
10979,129,127,126,127,125,129,127,128,0
10982,131,127,130,126,123,126,126,126,0
10986,126,127,132,129,132,125,128,126,0
10989,128,128,125,127,126,129,129,129,0
10992,127,128,128,129,127,128,127,127,0
10995,129,128,128,128,126,127,126,126,0
11001,124,127,129,130,129,125,126,127,0
11007,127,128,126,128,129,129,127,128,0
11010,129,127,127,129,128,129,127,128,0
11014,129,127,128,126,125,128,126,127,0
11017,124,127,126,125,125,128,126,128,0
11020,128,128,127,128,129,129,129,129,0
11023,128,129,127,128,127,127,125,128,0
11026,128,127,129,129,130,126,129,127,0
11029,126,127,130,130,134,126,128,128,0
11032,128,128,126,126,131,129,129,128,0
11035,129,127,127,128,125,128,127,128,0
11038,128,128,131,126,122,125,124,125,0
11041,125,124,128,126,121,125,125,126,0
11045,124,127,126,125,128,130,128,129,0
11049,130,128,129,129,128,129,127,128,0
11052,126,128,128,128,127,126,124,125,0
11055,125,128,128,127,123,126,127,127,0
11066,128,127,126,127,126,128,130,129,0
11070,130,128,129,129,129,128,125,126,0
11078,127,127,129,128,128,125,129,128,0
11081,127,128,128,131,133,127,131,128,0
11086,128,128,129,130,127,132,129,128,0
11089,128,128,127,127,132,130,129,129,0
11093,129,128,127,127,124,125,127,128,0
11095,128,127,128,128,129,126,130,128,0
11098,126,128,128,128,124,129,126,129,0
11101,128,128,126,127,127,129,131,128,0
11104,127,128,125,126,126,129,129,128,0
11107,130,125,127,125,121,126,125,127,0
11109,129,127,125,127,124,129,127,129,0
11114,128,128,127,127,127,127,127,129,0
11117,129,128,127,127,124,125,124,126,0
11121,135,126,128,129,134,127,131,128,0
11130,126,129,129,130,135,126,125,129,0
11137,130,128,126,128,128,129,126,128,0
11141,128,127,130,130,130,129,128,128,0
11145,126,127,127,129,130,124,131,128,0
11148,130,127,130,128,134,126,125,128,0
11151,129,128,129,127,128,127,128,128,0
11155,128,128,130,128,127,129,127,127,0
11158,128,128,128,127,125,126,125,126,0
11161,124,127,128,128,126,129,127,128,0
11163,128,128,125,126,130,130,129,128,0
11167,128,128,127,127,129,129,128,128,0
11171,125,128,127,127,122,126,127,127,0
11174,125,127,130,130,131,125,125,127,0
11177,128,129,127,126,129,129,128,129,0
11181,128,128,128,128,125,127,125,126,0
11184,131,127,128,126,124,127,127,125,0
11187,121,128,126,125,125,128,129,127,0
11191,126,128,127,127,131,130,127,128,0
11194,128,128,127,129,130,129,130,128,0
11197,128,128,127,127,124,127,125,126,0
11200,124,127,127,127,125,124,127,128,0
11203,131,128,128,128,129,129,128,128,0
11206,126,129,127,129,130,129,129,128,0
11209,128,128,127,126,127,125,129,126,0
11212,127,126,130,129,133,127,131,128,0
11215,126,127,129,132,126,130,129,129,0
11218,130,128,127,128,125,128,126,127,0
11221,128,128,129,122,123,126,129,127,0
11225,127,126,129,129,132,128,130,128,0
11229,128,127,127,128,130,128,128,128,0
11233,130,127,126,128,127,129,126,128,0
11239,128,128,126,127,125,129,128,126,0
11243,120,127,128,129,128,126,127,127,0
11246,125,128,128,127,125,127,128,128,0
11250,130,127,127,126,128,127,128,128,0
11252,129,128,127,127,122,126,125,126,0
11255,127,127,128,125,122,127,125,127,0
11258,127,128,128,128,131,128,129,129,0
11262,129,128,126,127,125,128,127,128,0
11265,128,128,130,128,127,124,125,126,0
11268,128,126,130,130,131,127,131,129,0
11271,126,127,127,128,126,128,126,128,0
11275,128,129,126,130,129,129,127,127,0
11278,129,128,128,127,127,130,125,127,0
11281,127,127,127,124,122,127,126,127,0
11286,128,128,130,127,127,126,126,128,0
11289,127,128,128,128,130,129,127,127,0
11292,127,126,128,129,125,127,125,127,0
11295,129,127,131,131,132,127,129,128,0
11299,127,127,129,131,130,129,130,129,0
11302,130,129,125,127,129,128,126,128,0
11305,124,129,127,127,128,126,125,126,0
11309,132,125,127,125,123,126,125,127,0
11312,130,128,128,127,126,129,126,128,0
11315,128,128,130,129,127,129,126,127,0
11319,128,128,127,128,127,129,128,127,0
11323,125,127,127,129,134,126,130,128,0
11326,126,127,129,130,133,127,127,127,0
11330,127,129,128,128,128,130,127,128,0
11333,130,128,127,127,124,126,125,126,0
11338,128,126,127,128,129,126,132,128,0
11344,129,127,129,130,133,127,127,127,0
11348,128,128,124,126,131,130,129,128,0
11352,128,128,126,126,126,129,126,128,0
11355,130,125,131,129,126,124,125,126,0
11358,126,128,129,128,125,126,126,127,0
11361,129,128,130,128,129,130,129,129,0
11369,129,127,127,126,126,129,127,128,0
11373,131,128,128,128,124,125,130,128,0
11377,127,127,131,129,133,126,126,129,0
11381,129,129,129,126,128,129,127,129,0
11384,127,128,127,126,127,129,128,128,0
11388,129,128,130,125,122,127,124,126,0
11392,127,128,128,127,123,129,127,129,0
11395,129,128,128,128,126,127,129,129,0
11398,128,128,128,128,126,126,125,125,0
11402,126,127,129,127,126,122,124,124,0
11406,127,126,128,131,136,127,129,127,0
11409,128,128,127,127,127,129,128,128,0
11413,129,128,127,126,130,129,129,128,0
11416,129,127,127,127,129,126,129,126,0
11420,126,127,129,131,133,127,130,128,0
11423,125,128,126,127,127,130,127,129,0
11427,130,128,127,126,125,128,126,128,0
11430,128,128,127,126,122,126,125,126,0
11433,127,127,127,125,124,127,126,127,0
11437,126,128,125,128,127,129,129,129,0
11440,127,128,125,128,130,128,129,128,0
11443,128,127,126,127,126,127,127,127,0
11446,121,127,127,127,123,125,126,129,0
11450,125,129,126,129,129,129,131,129,0
11454,127,128,126,128,127,127,128,128,0
11462,127,127,127,127,125,128,126,125,0
11465,125,127,131,131,139,127,134,128,0
11468,127,127,130,130,129,129,127,128,0
11470,128,128,128,127,128,128,126,128,0
11474,128,126,130,126,125,128,126,126,0
11476,127,127,130,129,131,127,129,129,0
11479,130,127,126,126,124,129,128,129,0
11482,128,129,127,126,128,129,128,128,0
11485,128,128,126,127,128,128,127,128,0
11490,125,125,130,125,122,128,127,128,0
11493,126,129,126,126,126,128,126,128,0
11498,127,128,128,127,131,128,128,128,0
11501,126,128,126,128,124,127,125,127,0
11504,128,127,129,130,135,127,131,128,0
11507,127,127,128,130,131,127,127,128,0
11510,127,128,130,129,130,129,129,128,0
11513,127,129,126,126,126,128,130,126,0
11520,126,127,129,125,121,127,125,126,0
11522,125,127,126,127,126,128,126,128,0
11525,128,129,128,127,130,129,127,127,0
11528,126,128,129,127,124,126,125,126,0
11531,130,127,129,128,124,124,125,127,0
11534,127,126,127,127,127,129,129,129,0
11537,129,128,126,127,130,129,129,130,0
11540,130,129,126,127,126,126,126,128,0
11543,128,128,129,130,132,127,130,128,0
11547,128,128,129,129,135,127,127,128,0
11550,127,128,127,128,132,129,131,128,0
11554,128,127,126,128,131,128,130,129,0
11557,128,126,126,128,127,126,130,128,0
11560,128,128,128,130,133,126,130,129,0
11564,128,129,125,127,131,129,128,128,0
11570,128,128,127,128,130,130,129,128,0
11576,125,127,126,126,123,126,125,126,0
11578,128,127,127,126,126,128,127,129,0
11581,128,128,127,126,127,128,126,128,0
11584,129,128,127,126,127,127,125,126,0
11587,126,126,127,129,123,125,125,126,0
11591,125,127,127,127,124,126,125,127,0
11594,127,128,129,130,128,128,127,128,0
11597,126,129,128,129,129,128,127,125,0
11601,129,127,128,127,129,127,136,128,0
11604,129,128,129,131,136,127,128,128,0
11607,125,128,127,128,126,129,128,128,0
11610,131,128,130,126,127,130,129,128,0
11613,130,128,126,127,126,124,126,127,0
11617,126,128,130,129,132,127,129,127,0
11620,126,129,125,125,126,132,130,129,0
11625,128,128,126,128,131,129,129,127,0
11630,126,126,126,127,125,127,129,123,0
11633,123,125,127,127,125,127,127,128,0
11636,128,128,125,127,129,129,129,129,0
11640,129,128,127,128,125,127,127,127,0
11643,129,127,131,127,123,126,126,127,0
11648,127,127,128,126,124,127,126,127,0
11653,130,129,126,128,127,129,128,129,0
11660,128,128,127,129,126,128,126,128,0
11668,130,127,129,127,124,126,127,127,0
11676,126,126,130,131,138,128,134,127,0
11684,129,127,128,127,125,129,127,129,0
11688,128,128,126,128,126,128,130,129,0
11698,128,128,126,125,124,128,127,126,0
11702,123,125,126,126,134,127,130,128,0
11706,128,127,128,129,128,128,126,128,0
11720,129,128,124,127,127,128,127,128,0
11714,129,128,130,128,130,131,128,128,0
11724,123,127,129,129,123,127,126,128,0
11728,125,127,126,128,126,129,128,129,0
11732,129,128,127,127,128,129,127,128,0
11736,128,127,127,127,127,128,126,127,0
11740,122,127,128,126,126,126,130,127,0
11743,128,128,129,130,133,126,130,129,0
11749,128,129,126,127,133,129,129,129,0
11755,127,128,126,128,125,130,126,128,0
11758,130,125,129,129,133,126,130,128,0
11765,129,127,127,129,126,129,126,128,0
11772,129,129,128,128,126,129,126,128,0
11775,129,128,130,127,123,126,125,126,0
11779,129,126,129,123,123,129,127,127,0
11784,125,127,127,128,124,129,127,129,0
11791,130,128,128,129,127,128,125,128,0
11798,129,128,126,128,124,126,124,126,0
11804,127,127,129,129,122,125,130,128,0
11809,127,128,129,131,130,124,130,129,0
11812,129,129,122,128,128,129,131,129,0
11816,128,129,130,127,128,129,130,127,0
11820,124,125,130,130,127,125,127,127,0
11825,126,127,126,127,127,129,127,128,0
11829,129,129,126,127,129,127,128,129,0
11833,129,128,128,128,126,126,124,125,0
11836,125,127,128,126,124,123,128,126,0
11840,126,127,127,130,128,124,128,129,0
11845,129,128,127,129,128,130,129,129,0
11849,129,128,132,127,127,129,127,128,0
11853,124,127,125,125,125,128,127,126,0
11856,125,127,126,125,124,128,126,127,0
11860,124,128,128,131,131,129,128,129,0
11863,128,127,125,127,128,128,127,128,0
11866,129,126,126,126,124,127,126,126,0
11869,126,127,129,130,134,126,129,128,0
11873,128,128,127,125,129,130,129,128,0
11876,127,129,126,129,128,129,128,128,0
11880,127,127,129,127,124,127,126,126,0
11884,126,125,129,133,135,126,131,128,0
11887,126,127,128,129,127,129,128,128,0
11890,127,129,128,124,127,128,125,127,0
11893,124,127,125,127,123,126,125,126,0
11896,124,126,127,125,125,128,128,128,0
11900,127,128,124,127,126,128,127,128,0
11903,128,129,125,127,130,129,128,128,0
11906,125,129,126,127,123,126,128,127,0
11910,128,126,132,130,134,128,130,129,0
11914,127,128,128,127,128,128,127,128,0
11918,128,128,125,125,128,129,127,127,0
11921,128,128,124,127,125,128,128,127,0
11924,127,126,134,126,122,127,126,127,0
11928,128,129,128,128,126,129,127,129,0
11931,127,129,127,127,128,127,126,128,0
11934,129,127,129,127,127,125,127,128,0
11939,126,127,130,131,134,127,132,128,0
11942,127,127,128,130,127,130,128,128,0
11946,128,128,129,123,129,129,127,128,0
11955,131,127,126,125,126,127,130,124,0
11960,124,128,128,127,123,127,126,128,0
11963,127,128,126,127,129,129,128,129,0
11972,130,128,127,124,127,128,128,128,0
11980,128,129,127,129,125,124,126,128,0
11984,127,127,128,127,127,125,130,128,0
11988,127,127,129,131,132,125,129,128,0
11995,128,128,126,128,128,129,128,129,0
12000,129,128,129,127,126,128,126,128,0
12006,126,126,128,128,131,126,132,128,0
12013,128,127,128,128,125,130,128,129,0
12017,130,128,127,127,125,129,128,128,0
12025,129,127,127,127,125,128,128,128,0
12029,130,127,129,125,122,127,126,127,0
12033,129,128,128,125,128,129,130,130,0
12037,126,129,125,127,129,128,129,129,0
12040,128,128,126,127,124,127,125,127,0
12043,128,127,125,124,124,124,127,128,0
12046,127,127,132,131,134,126,127,127,0
12050,129,128,129,126,128,128,127,128,0
12053,129,128,132,132,128,126,127,125,0
12058,127,128,126,124,124,126,124,124,0
12065,125,127,129,130,136,128,126,128,0
12069,131,128,126,126,131,130,129,129,0
12077,129,128,126,127,125,129,128,128,0
12081,127,127,126,129,129,127,129,127,0
12088,126,127,129,130,131,125,126,127,0
12095,128,128,126,127,129,129,128,128,0
12099,127,128,125,127,124,129,124,126,0
12103,130,125,129,128,124,128,127,126,0
12107,122,127,126,125,125,129,126,128,0
12112,126,127,126,128,131,129,129,128,0
12116,128,129,125,126,126,127,124,127,0
12119,127,127,129,129,125,123,129,128,0
12123,127,126,130,132,130,126,127,126,0
12126,130,128,124,124,129,130,128,128,0
12129,128,129,127,126,128,129,128,128,0
12133,127,126,128,126,124,128,129,128,0
12136,126,127,129,128,134,127,128,128,0
12140,124,128,129,129,129,130,128,128,0
12143,129,127,131,127,126,129,127,128,0
12147,129,129,125,128,126,127,125,126,0
12150,121,127,127,127,124,128,125,127,0
12153,127,128,128,127,130,128,130,129,0
12157,130,127,128,125,128,127,126,128,0
12161,124,128,127,128,124,125,125,127,0
12164,124,127,130,131,131,127,131,127,0
12166,125,128,125,127,129,129,129,129,0
12170,129,128,127,128,127,129,126,127,0
12173,130,127,127,127,125,128,127,127,0
12176,124,125,126,125,125,127,128,127,0
12180,127,128,127,128,126,127,128,128,0
12183,129,128,127,125,131,128,128,128,0
12186,127,127,129,131,125,128,129,127,0
12189,126,127,129,129,134,127,131,129,0
12193,128,127,125,125,128,130,129,129,0
12196,129,128,128,129,133,128,126,127,0
12199,129,127,127,128,126,126,126,126,0
12202,126,126,127,125,124,128,126,128,0
12205,129,128,129,130,129,126,126,126,0
12209,128,128,130,126,130,128,127,127,0
12213,128,127,124,124,129,128,129,126,0
12218,123,128,128,131,134,126,131,128,0
12221,127,127,128,130,126,130,126,128,0
12224,128,128,126,128,132,130,126,127,0
12227,129,127,127,127,123,125,126,127,0
12229,129,126,126,128,122,127,126,127,0
12232,125,128,126,128,129,129,130,129,0
12235,127,128,126,129,127,129,128,128,0
12237,130,126,128,127,125,126,125,126,0
12241,126,127,129,129,123,125,126,127,0
12244,123,128,129,128,135,128,129,129,0
12246,129,128,127,127,128,130,130,129,0
12249,129,128,127,127,125,127,128,127,0
12252,124,126,131,130,134,128,131,128,0
12255,129,128,129,129,126,133,130,129,0
12259,128,129,127,127,126,129,127,128,0
12263,129,127,127,130,126,129,126,128,0
12267,126,127,127,126,122,127,127,127,0
12271,128,125,129,128,128,128,130,129,0
12274,127,128,125,126,129,128,128,129,0
12277,130,128,127,128,127,128,128,126,0
12280,124,127,126,125,122,126,126,126,0
12284,126,128,127,126,125,126,126,128,0
12290,127,128,127,128,131,129,127,129,0
12294,126,128,128,128,128,128,128,127,0
12298,128,127,125,128,131,125,131,128,0
12302,127,127,131,130,133,127,128,127,0
12305,126,128,126,124,129,129,129,130,0
12310,127,128,126,130,127,129,127,128,0
12314,128,127,127,123,122,126,126,127,0
12319,125,126,126,125,126,129,127,128,0
12323,130,129,127,127,128,129,129,129,0
12327,129,128,127,128,125,127,129,127,0
12332,125,126,126,125,125,127,128,127,0
12336,129,126,129,134,134,128,128,128,0
12340,123,129,127,128,126,129,126,128,0
12343,128,129,128,127,127,126,124,127,0
12346,129,126,128,126,127,125,127,127,0
12349,127,127,129,130,131,126,128,126,0
12351,128,129,129,126,126,129,126,128,0
12354,129,128,128,126,125,129,126,127,0
12357,128,127,128,126,124,124,125,126,0
12360,127,126,127,126,127,124,126,127,0
12363,124,128,126,125,129,130,130,129,0
12367,131,128,126,124,129,129,129,128,0
12371,129,128,129,128,126,128,128,127,0
12374,126,126,128,131,135,128,130,128,0
12377,128,128,129,127,125,129,128,128,0
12380,127,127,125,126,127,129,131,128,0
12384,127,127,126,128,124,127,130,123,0
12386,126,127,128,126,122,126,124,125,0
12390,128,128,126,127,130,128,128,128,0
12393,127,128,125,127,128,128,127,129,0
12397,129,127,128,127,125,125,126,126,0
12400,127,125,130,129,132,126,128,128,0
12402,126,128,128,129,127,129,127,129,0
12405,129,129,126,126,129,130,128,128,0
12409,129,128,127,126,125,128,125,125,0
12413,127,127,128,124,123,127,125,127,0
12417,127,128,127,125,126,127,127,128,0
12420,127,129,129,130,129,128,128,127,0
12423,125,128,127,126,127,128,128,127,0
12427,128,126,125,127,124,124,129,129,0
12432,127,128,129,134,134,127,129,128,0
12440,124,128,126,127,129,130,128,128,0
12445,129,128,129,124,125,126,125,126,0
12450,128,127,126,128,134,128,133,129,0
12453,127,128,129,128,125,131,128,128,0
12456,128,129,129,127,127,129,127,127,0
12461,129,128,126,127,126,129,126,126,0
12465,124,127,129,127,123,127,126,127,0
12468,126,126,127,126,128,129,130,129,0
12471,129,128,126,128,128,129,128,128,0
12474,130,128,128,128,124,126,125,127,0
12478,126,127,128,125,125,126,125,126,0
12481,126,127,128,127,125,125,129,129,0
12484,127,128,126,128,129,129,129,129,0
12487,129,128,128,128,129,127,128,127,0
12491,126,128,130,130,131,126,130,127,0
12494,128,126,130,129,135,126,128,126,0
12498,133,128,129,128,127,130,130,129,0
12501,129,128,128,126,125,126,126,126,0
12505,128,127,128,123,124,128,125,126,0
12508,127,127,125,126,125,129,128,130,0
12511,129,129,127,127,129,128,126,128,0
12515,129,128,128,127,129,126,125,126,0
12519,127,127,127,127,127,126,130,128,0
12521,127,127,131,132,133,127,128,129,0
12525,127,128,126,124,128,130,131,128,0
12528,128,127,124,126,127,128,127,129,0
12531,128,126,126,126,123,127,126,125,0
12534,128,126,127,129,126,128,127,128,0
12537,128,129,127,128,130,128,126,129,0
12540,127,128,126,128,129,129,128,128,0
12543,126,126,127,127,124,126,125,126,0
12546,125,127,131,130,132,127,130,128,0
12552,128,128,124,128,131,131,130,128,0
12557,127,128,128,131,129,127,127,127,0
12563,125,126,129,127,127,124,128,128,0
12566,126,127,128,129,135,127,130,127,0
12570,125,129,124,128,132,128,129,129,0
12573,129,128,131,127,125,128,126,127,0
12576,127,127,127,127,126,125,126,126,0
12580,125,127,128,130,127,125,127,129,0
12583,129,128,125,125,126,129,129,129,0
12591,129,128,125,123,130,129,130,129,0
12594,128,128,126,127,122,125,126,127,0
12597,127,127,127,126,123,128,126,126,0
12602,126,127,128,133,129,129,129,130,0
12605,129,128,127,127,130,129,129,129,0
12610,127,128,127,127,124,124,125,125,0
12614,127,126,130,129,132,127,132,129,0
12618,127,128,130,129,126,129,128,128,0
12622,129,128,128,126,127,128,127,127,0
12628,128,127,131,130,126,122,126,128,0
12631,126,128,125,126,133,127,130,128,0
12635,127,130,121,124,127,129,127,130,0
12638,128,127,134,130,128,129,127,129,0
12642,129,127,128,127,127,128,127,127,0
12645,128,126,128,128,124,127,127,124,0
12648,124,127,129,128,126,129,127,128,0
12652,128,128,126,129,130,128,127,128,0
12655,128,128,128,127,126,128,127,127,0
12659,128,126,128,125,123,123,130,128,0
12662,127,128,127,132,133,125,128,129,0
12670,128,127,127,127,124,127,125,125,0
12665,130,128,129,129,127,129,128,129,0
12675,126,126,128,125,123,125,124,126,0
12680,126,128,124,129,127,129,130,130,0
12683,129,129,126,128,128,128,129,128,0
12685,129,128,129,128,125,127,125,125,0
12688,127,127,128,129,135,127,134,129,0
12691,129,128,128,130,131,125,128,129,0
12693,129,128,126,128,128,130,128,128,0
12697,130,128,128,126,126,128,126,125,0
12700,126,127,128,127,124,127,125,126,0
12703,127,128,127,127,124,130,128,129,0
12706,129,128,129,130,128,128,126,128,0
12710,129,127,129,122,128,128,126,127,0
12713,124,127,128,131,133,127,131,127,0
12716,127,128,127,130,131,126,130,129,0
