Start Recording
16,129,128,126,126,132,128,129,128,0
23,127,129,125,126,130,130,130,129,0
29,127,128,126,127,126,128,128,128,0
33,127,126,128,126,125,126,126,128,0
37,122,127,128,127,128,129,129,126,0
42,126,128,127,128,129,129,129,128,0
46,129,127,127,128,126,128,130,129,0
49,128,128,130,130,132,128,131,129,0
53,127,127,129,130,134,125,129,128,0
57,129,128,126,127,127,129,129,129,0
60,128,128,126,126,124,130,128,127,0
64,128,126,126,126,125,127,127,127,0
68,127,127,127,127,125,127,125,127,0
72,126,128,126,127,133,128,129,128,0
75,126,128,126,128,127,128,128,127,0
79,126,127,129,128,124,126,125,125,0
82,128,127,128,128,127,128,127,126,0
86,129,128,127,129,131,126,127,129,0
89,126,127,127,129,133,127,131,129,0
93,129,127,130,130,131,128,132,128,0
96,129,128,129,128,134,129,129,125,0
146,131,129,128,126,129,130,127,129,0
152,130,129,129,125,125,128,125,126,0
158,125,127,126,128,125,125,128,128,0
163,128,127,129,129,128,124,129,130,0
167,128,128,125,127,126,129,127,128,0
170,128,128,126,127,124,129,129,128,0
214,128,126,127,128,125,126,125,126,0
221,124,127,127,125,124,126,125,128,0
225,128,128,126,127,125,128,130,129,0
229,129,128,127,128,125,124,124,125,0
236,130,127,127,128,127,127,127,128,0
280,128,125,129,130,132,127,130,130,0
286,128,128,126,129,128,129,130,129,0
291,128,128,127,127,124,128,126,127,0
347,129,127,129,128,124,128,127,128,0
353,127,126,128,130,134,128,128,127,0
361,125,128,126,127,126,129,127,128,0
366,129,128,125,126,129,129,129,128,0
370,128,126,128,126,127,125,124,127,0
418,128,127,129,130,135,126,129,128,0
424,126,128,126,127,124,129,127,128,0
429,131,128,127,127,124,128,126,128,0
433,129,127,131,127,123,124,128,126,0
436,124,126,129,127,123,126,124,126,0
440,131,129,129,128,125,128,125,127,0
443,129,128,127,127,125,129,125,127,0
446,128,128,128,128,125,125,124,125,0
450,128,126,127,129,136,128,130,128,0
453,128,128,129,131,130,127,127,127,0
457,128,128,126,126,126,130,129,128,0
460,129,128,130,126,124,125,124,126,0
464,126,126,129,130,129,126,129,128,0
467,128,128,127,126,126,129,128,127,0
470,129,129,127,128,126,127,125,128,0
483,129,128,130,126,125,128,127,127,0
488,127,126,127,127,126,128,127,128,0
495,122,128,129,128,126,127,125,127,0
499,128,128,126,127,131,127,127,128,0
503,126,128,129,128,124,124,125,127,0
507,128,127,129,130,136,127,129,128,0
510,129,127,128,130,131,125,125,128,0
514,129,128,127,126,126,127,125,127,0
517,129,128,127,126,127,128,128,126,0
521,125,127,128,126,124,127,126,127,0
524,130,126,127,126,124,126,125,128,0
527,128,128,127,128,125,128,125,127,0
530,127,128,128,127,128,128,126,125,0
533,124,127,129,129,132,126,129,128,0
537,127,128,129,130,134,126,128,129,0
540,130,129,127,128,125,128,127,127,0
549,128,128,127,127,127,129,128,127,0
555,125,127,127,126,125,128,127,126,0
558,127,126,126,126,127,129,129,129,0
561,128,128,126,127,126,128,126,128,0
565,128,127,127,128,128,129,125,126,0
569,126,127,129,126,125,127,125,126,0
621,127,127,128,126,127,128,126,127,0
627,129,128,128,128,127,129,127,129,0
632,130,128,127,128,128,129,126,127,0
637,123,127,128,127,124,127,128,129,0
641,128,128,129,129,138,127,130,129,0
687,128,128,129,130,135,128,129,129,0
700,129,128,125,127,125,128,130,127,0
713,125,127,129,125,124,129,126,126,0
720,130,127,128,127,128,125,129,126,0
728,128,129,127,127,127,130,128,129,0
732,128,128,126,128,127,128,127,128,0
736,128,127,127,127,124,127,128,126,0
741,128,127,129,130,134,128,129,127,0
745,126,128,126,127,126,129,125,128,0
748,129,128,129,126,127,128,126,127,0
752,128,127,126,127,123,126,128,126,0
755,125,126,128,129,131,126,126,128,0
759,129,128,126,126,128,129,128,127,0
763,128,128,128,127,124,127,124,126,0
766,128,126,127,127,124,127,127,127,0
770,124,127,129,131,131,125,127,126,0
774,129,128,128,126,127,127,127,128,0
777,128,128,129,129,130,127,126,127,0
780,125,127,126,125,126,129,125,127,0
785,126,127,129,130,135,128,132,128,0
789,126,128,125,125,128,130,129,129,0
793,128,127,125,126,127,130,129,128,0
796,128,128,126,126,126,128,127,128,0
800,126,124,127,126,126,128,126,128,0
803,123,128,126,128,127,129,130,130,0
806,129,129,127,128,126,125,125,126,0
810,128,128,128,127,124,125,126,127,0
814,128,126,128,127,124,127,125,127,0
816,127,128,126,127,127,129,129,129,0
820,129,128,126,127,124,126,129,129,0
823,129,127,128,129,133,127,130,128,0
826,128,127,129,129,133,128,131,129,0
829,128,128,127,125,124,129,127,128,0
834,128,128,127,127,125,129,127,128,0
838,128,126,127,126,123,129,127,127,0
841,128,127,127,128,123,128,129,125,0
844,127,127,127,126,127,129,132,129,0
847,127,128,125,127,126,129,129,129,0
850,130,127,126,127,124,127,127,127,0
853,130,127,129,129,136,128,131,129,0
856,128,128,129,130,131,124,127,127,0
860,130,129,127,127,126,129,127,127,0
863,128,127,126,127,123,126,130,127,0
866,129,127,127,125,123,124,126,128,0
868,130,128,130,126,127,125,126,126,0
872,127,129,126,127,130,129,128,128,0
875,125,128,129,128,127,123,124,126,0
878,124,127,128,128,131,127,132,129,0
887,129,128,129,130,136,127,127,128,0
892,131,128,129,126,127,130,127,127,0
898,127,127,126,128,128,129,128,126,0
901,125,127,129,127,125,128,127,125,0
906,128,127,128,127,123,126,125,128,0
910,128,129,126,127,130,127,127,128,0
913,126,128,127,127,129,129,128,128,0
916,128,125,130,126,125,128,129,128,0
920,129,128,128,130,136,128,128,126,0
956,131,129,127,128,127,129,125,127,0
963,128,128,126,126,127,130,131,127,0
968,128,127,126,127,126,128,129,128,0
973,128,128,129,129,134,128,126,129,0
978,127,128,126,126,130,129,129,128,0
1024,129,128,126,127,127,129,130,129,0
1031,130,127,129,126,123,126,128,127,0
1044,126,127,129,129,131,125,131,128,0
1049,127,128,126,126,128,129,126,128,0
1053,128,129,125,127,127,128,126,127,0
1058,129,127,130,129,123,127,124,126,0
1062,126,126,127,126,126,127,127,128,0
1065,129,129,128,128,127,127,125,127,0
1068,128,128,128,129,129,127,126,126,0
1072,127,127,128,126,127,129,130,129,0
1075,127,127,130,130,134,128,131,129,0
1078,127,126,127,128,128,129,127,128,0
1082,127,128,127,127,127,129,126,128,0
1085,129,127,130,128,127,128,127,125,0
1089,130,127,129,127,125,127,127,128,0
1092,131,128,127,127,130,127,127,129,0
1096,126,128,125,127,126,127,127,129,0
1099,129,127,129,128,124,126,130,128,0
1103,127,127,130,130,135,129,132,128,0
1106,127,128,127,127,125,129,129,128,0
1108,128,129,126,127,125,130,127,127,0
1111,126,127,127,128,127,128,128,126,0
1114,128,127,129,128,123,127,126,126,0
1118,127,127,125,126,128,128,129,129,0
1121,130,128,128,128,126,126,125,126,0
1124,127,127,128,127,127,126,125,126,0
1127,126,127,128,130,135,128,130,129,0
1130,127,128,129,129,124,128,127,129,0
1134,130,129,127,127,125,128,125,128,0
1139,128,127,126,126,124,127,127,126,0
1143,121,126,129,129,135,128,129,128,0
1147,128,128,127,125,125,131,130,128,0
1150,128,128,125,125,130,130,131,128,0
1153,128,127,126,126,122,127,125,125,0
1156,126,127,128,126,122,127,125,126,0
1158,130,128,126,127,125,127,126,127,0
1161,129,128,127,127,126,128,125,126,0
1165,127,127,128,127,125,125,126,128,0
1168,128,127,128,126,124,124,125,127,0
1171,128,127,126,127,127,128,130,129,0
1174,128,129,126,128,126,127,126,128,0
1177,129,128,128,127,125,124,127,127,0
1180,129,126,128,128,126,122,131,129,0
1184,129,128,129,130,137,128,130,129,0
1186,128,128,126,129,130,131,127,128,0
1190,129,127,127,126,127,127,127,126,0
1193,126,127,128,128,125,127,126,126,0
1196,128,127,128,127,124,128,127,127,0
1199,129,129,128,129,129,130,127,128,0
1202,129,128,126,127,125,126,124,127,0
1205,127,127,129,126,124,126,124,125,0
1208,128,127,128,128,125,125,125,128,0
1211,128,129,127,129,130,130,126,128,0
1216,127,127,126,127,128,125,128,126,0
1218,127,127,128,128,130,129,134,128,0
1221,129,128,129,129,133,129,131,129,0
1225,128,125,127,128,127,128,125,127,0
1229,130,128,128,126,127,129,131,126,0
1233,125,128,127,125,123,126,129,128,0
1238,128,128,130,130,134,129,130,128,0
1243,126,128,126,126,130,131,131,129,0
1246,128,127,125,125,128,130,130,128,0
1249,130,128,127,125,123,127,125,126,0
1252,124,126,128,125,123,125,125,126,0
1255,127,128,126,126,130,129,130,129,0
1258,128,129,127,127,127,128,127,128,0
1260,127,126,128,127,122,125,129,126,0
1264,126,127,129,130,135,129,127,125,0
1267,127,128,126,127,124,127,128,128,0
1270,129,128,129,128,132,129,130,128,0
1273,129,127,127,125,126,128,127,127,0
1276,130,127,129,126,125,125,125,126,0
1279,129,128,126,128,129,128,130,129,0
1282,129,128,128,128,126,126,125,127,0
1285,127,126,127,126,128,125,125,126,0
1289,128,127,129,130,135,127,132,129,0
1292,126,128,127,127,123,129,127,129,0
1295,130,128,126,127,126,129,126,127,0
1299,128,127,128,125,124,127,124,126,0
1302,127,125,128,126,125,128,127,128,0
1305,129,129,127,126,128,128,128,129,0
1308,125,129,126,127,126,124,125,126,0
1311,128,128,129,128,125,123,128,128,0
1315,125,127,130,130,134,128,130,128,0
1318,128,128,128,130,133,124,131,128,0
1321,129,128,126,127,128,132,129,128,0
1325,128,128,125,127,129,130,126,126,0
1328,124,127,130,129,128,126,129,127,0
1334,124,128,127,126,127,128,126,128,0
1339,129,128,127,126,126,129,126,127,0
1342,127,127,126,127,122,126,127,127,0
1345,131,126,127,125,124,127,125,126,0
1348,128,127,125,127,127,129,129,129,0
1352,127,128,126,127,126,126,126,128,0
1356,128,128,127,126,127,127,125,125,0
1359,127,126,128,129,135,128,133,129,0
1362,127,128,129,130,132,127,127,128,0
1365,127,128,125,126,129,131,130,129,0
1368,128,128,126,127,123,127,128,128,0
1371,125,127,127,127,125,127,126,127,0
1375,128,127,129,130,134,128,130,127,0
1378,129,128,126,126,127,129,129,129,0
1381,130,127,127,127,124,126,124,127,0
1385,128,126,127,125,123,127,129,127,0
1388,128,127,129,130,133,127,126,128,0
1391,127,128,126,126,131,130,131,129,0
1394,128,128,126,126,124,127,127,128,0
1397,127,127,127,127,124,127,125,127,0
1400,130,127,128,126,127,124,127,128,0
1403,128,128,126,129,129,129,128,129,0
1406,128,128,127,127,126,127,124,127,0
1410,125,127,128,127,126,128,126,127,0
1413,128,128,128,126,127,124,126,128,0
1416,128,129,127,127,126,126,126,128,0
1419,128,128,127,128,128,127,129,129,0
1422,129,128,129,130,135,128,130,128,0
1425,128,127,128,129,134,128,130,129,0
1428,125,129,126,125,126,130,127,129,0
1433,128,128,125,126,123,126,127,127,0
1438,130,126,127,125,122,126,125,126,0
1443,126,127,129,127,127,130,128,128,0
1447,129,128,127,127,126,128,125,128,0
1450,127,128,127,127,129,129,127,127,0
1453,125,127,127,129,126,128,127,126,0
1456,128,127,129,129,134,128,130,128,0
1459,123,127,127,128,128,129,127,128,0
1462,128,129,126,127,126,128,130,128,0
1465,127,127,127,127,127,127,128,126,0
1468,125,127,130,130,134,128,130,129,0
1471,128,128,127,128,127,130,127,128,0
1474,127,128,125,126,125,128,128,128,0
1477,129,127,126,125,125,130,125,127,0
1480,129,126,130,126,126,124,124,125,0
1484,126,128,129,129,129,127,126,128,0
1488,126,127,126,127,132,127,127,126,0
1491,126,126,128,128,125,128,124,125,0
1496,128,127,129,125,125,127,125,126,0
1500,124,128,126,127,130,128,126,127,0
1503,126,128,127,127,129,128,127,128,0
1506,127,127,127,128,126,123,125,126,0
1511,128,127,130,131,141,130,137,129,0
1515,128,128,127,130,135,127,126,128,0
1518,129,128,128,127,127,127,125,127,0
1521,129,128,130,127,127,128,126,127,0
1524,126,127,128,126,124,124,125,127,0
1527,128,128,127,128,127,128,126,129,0
1530,128,129,128,127,128,126,125,127,0
1532,126,127,130,127,124,124,128,127,0
1535,128,127,128,127,123,128,127,128,0
1541,123,127,128,129,127,128,127,128,0
1544,127,128,127,129,127,128,125,128,0
1547,129,128,129,127,126,125,130,128,0
1550,127,127,130,130,135,128,131,129,0
1554,129,128,128,129,126,129,127,129,0
1557,131,129,128,126,126,127,126,127,0
1560,128,128,129,126,125,126,125,126,0
1563,125,126,128,128,126,125,128,126,0
1566,127,127,126,127,128,129,128,129,0
1569,129,129,126,127,126,129,126,128,0
1576,128,128,128,129,125,124,126,127,0
1579,129,128,128,127,129,128,132,129,0
1582,129,128,129,130,134,124,130,129,0
1586,130,129,126,126,125,128,127,128,0
1589,131,128,129,126,124,125,124,125,0
1592,127,127,130,126,124,128,126,124,0
1595,125,125,128,126,128,129,129,129,0
1599,126,129,125,126,129,129,129,130,0
1602,127,128,126,128,127,129,127,127,0
1605,128,127,127,128,125,124,127,127,0
1608,127,127,129,131,134,129,131,129,0
1612,128,128,126,127,125,128,125,127,0
1617,129,127,130,125,126,128,126,125,0
1621,128,126,128,131,133,128,132,129,0
1625,128,127,130,130,133,128,125,127,0
1628,128,129,126,127,128,130,130,128,0
1631,128,128,126,127,124,128,130,128,0
1634,127,127,127,124,123,126,128,126,0
1637,130,127,127,125,124,128,126,128,0
1641,128,129,126,128,126,129,128,128,0
1646,126,129,126,126,128,128,131,127,0
1653,127,126,127,127,122,127,125,127,0
1659,129,128,128,128,125,128,127,129,0
1664,129,129,127,127,126,126,126,128,0
1667,129,128,128,128,128,124,129,128,0
1670,128,127,127,127,127,126,132,129,0
1673,127,127,129,130,135,127,131,129,0
1675,127,128,125,126,126,130,128,129,0
1680,130,128,126,127,126,129,128,128,0
1682,128,128,131,127,123,127,125,125,0
1685,130,128,128,126,125,127,126,127,0
1690,126,129,126,126,129,129,130,130,0
1697,127,129,125,127,126,128,128,128,0
1706,130,127,128,129,129,122,128,126,0
1733,124,126,129,130,132,128,131,128,0
1753,127,128,129,130,125,130,128,128,0
1760,129,128,128,128,131,130,129,127,0
1765,127,128,126,128,127,128,130,126,0
1770,126,127,129,128,128,124,129,127,0
1775,125,128,126,126,125,127,125,128,0
1778,130,128,127,126,129,128,125,127,0
1782,127,127,127,127,124,128,128,127,0
1785,127,127,129,130,135,128,130,129,0
1789,127,128,126,127,129,130,127,128,0
1793,128,128,126,128,127,129,126,127,0
1796,129,127,126,125,127,129,128,128,0
1799,127,127,128,125,123,127,128,129,0
1803,124,128,125,127,125,128,132,129,0
1806,129,129,125,127,125,128,127,128,0
1809,127,127,128,126,127,127,125,127,0
1812,128,127,129,126,125,128,127,128,0
1816,128,128,128,127,127,127,126,128,0
1821,128,128,127,129,129,128,127,127,0
1824,125,128,127,129,129,123,131,129,0
1836,128,128,129,130,134,129,127,128,0
1828,128,128,129,130,135,127,132,128,0
1838,127,129,126,126,128,130,127,127,0
1845,127,127,127,127,127,130,127,127,0
1848,126,127,128,125,121,126,124,126,0
1851,128,127,127,127,127,128,127,128,0
1862,128,128,127,127,128,128,127,128,0
1858,128,128,126,128,127,130,127,127,0
1866,128,126,128,128,125,124,132,130,0
1870,127,128,128,130,134,127,126,129,0
1873,130,129,127,126,125,128,125,127,0
1877,128,128,127,127,125,128,126,127,0
1880,127,127,129,125,122,125,128,127,0
1882,126,127,129,131,134,129,129,127,0
1885,131,129,129,127,125,128,126,128,0
1888,128,128,126,127,123,129,130,128,0
1891,129,127,130,128,127,126,125,125,0
1896,126,127,128,128,125,127,125,127,0
1898,125,128,125,126,129,130,129,129,0
1901,128,129,125,127,125,126,126,128,0
1904,128,126,127,127,123,123,125,127,0
1907,128,127,127,127,125,127,127,128,0
1910,129,128,127,129,129,127,127,129,0
1913,129,128,126,127,126,125,125,127,0
1915,128,127,128,130,134,128,131,128,0
1918,128,127,129,130,135,127,129,128,0
1921,128,128,126,126,126,130,126,128,0
1925,130,129,128,126,126,126,125,125,0
1930,128,126,130,128,126,127,125,126,0
1934,127,126,127,128,126,130,129,128,0
1939,126,128,126,127,126,127,128,129,0
1941,129,128,128,128,127,125,125,128,0
1947,127,127,127,128,124,124,126,126,0
1951,128,127,128,130,134,128,133,129,0
1954,127,128,129,129,124,129,126,128,0
1957,129,128,127,128,130,130,128,128,0
1961,129,127,127,127,124,126,125,127,0
1964,121,127,127,125,125,127,127,125,0
1969,128,128,126,128,133,128,130,129,0
1972,126,129,126,127,129,128,131,128,0
1975,126,128,128,127,124,126,126,127,0
1978,127,127,128,128,128,125,126,127,0
1981,125,128,126,128,128,129,127,128,0
1985,128,128,126,127,129,129,128,128,0
1988,123,127,127,128,132,129,132,128,0
1991,127,127,129,130,132,128,132,128,0
1995,128,128,128,130,129,131,128,128,0
1998,128,128,125,128,127,131,129,129,0
2001,129,127,127,127,123,127,128,128,0
2005,129,127,128,127,125,125,127,125,0
2009,127,128,126,128,131,128,128,128,0
2012,127,128,125,128,129,129,128,127,0
2016,128,127,127,126,124,127,125,126,0
2019,130,125,129,129,128,126,132,129,0
2023,128,129,128,130,129,131,131,129,0
2026,127,129,126,126,129,128,127,128,0
2029,128,127,127,126,124,127,128,128,0
2033,125,127,129,127,126,126,125,125,0
2037,126,128,127,128,130,127,127,129,0
2042,128,129,125,126,129,130,128,129,0
2045,128,127,127,127,125,128,126,128,0
2048,128,127,128,128,122,127,124,126,0
2051,128,128,128,128,126,127,125,126,0
2054,126,128,127,129,130,128,128,128,0
2057,125,128,127,128,126,128,128,127,0
2061,129,126,129,127,128,128,134,130,0
2064,128,129,129,130,135,127,130,130,0
2067,129,129,127,126,124,128,126,128,0
2070,131,128,127,127,124,124,126,127,0
2074,128,127,129,129,132,128,133,128,0
2078,127,127,128,129,123,128,125,127,0
2082,129,129,127,128,127,129,129,129,0
2085,129,128,126,127,122,127,129,128,0
2088,131,127,128,127,123,127,126,124,0
2093,127,128,127,128,124,126,124,126,0
2096,125,128,127,126,130,129,129,130,0
2098,127,128,126,127,126,128,127,127,0
2102,125,126,127,127,123,124,129,129,0
2105,128,128,129,130,135,128,127,126,0
2108,130,129,127,129,130,128,127,127,0
2111,127,127,127,128,127,129,131,127,0
2115,126,127,126,129,123,127,124,125,0
2118,126,127,127,127,128,126,127,126,0
2121,128,128,126,127,130,130,130,129,0
2125,127,128,126,127,125,127,126,128,0
2128,127,127,127,127,124,127,130,128,0
2131,127,128,129,130,137,128,130,129,0
2135,128,128,126,128,128,129,128,127,0
2140,128,128,125,125,128,129,127,128,0
2146,131,127,129,127,126,128,130,126,0
2150,127,127,127,128,125,128,127,128,0
2154,127,129,128,127,125,127,128,129,0
2157,129,128,130,126,129,128,128,126,0
2160,128,127,128,128,127,128,125,127,0
2163,128,127,129,131,134,128,128,129,0
2166,127,128,127,128,128,129,127,128,0
2169,127,128,127,128,130,128,129,127,0
2172,127,127,128,128,125,129,126,128,0
2175,130,126,128,127,124,123,124,125,0
2178,127,128,128,129,129,128,126,128,0
2181,125,127,126,127,130,127,127,128,0
2185,129,127,127,126,123,126,126,128,0
2188,123,127,128,126,129,128,133,129,0
2193,128,129,128,130,134,128,130,129,0
2196,130,129,128,127,124,129,128,129,0
2200,130,128,131,127,122,126,127,125,0
2204,127,127,128,129,130,128,133,128,0
2208,126,128,127,127,126,129,128,129,0
2210,132,129,125,128,128,130,130,129,0
2216,129,128,128,127,123,127,126,127,0
2219,129,123,128,127,123,128,127,128,0
2223,126,128,128,128,128,128,125,128,0
2226,128,128,128,129,129,126,125,127,0
2230,127,128,126,128,126,128,127,127,0
2236,128,127,128,126,125,127,128,128,0
2240,123,128,128,129,131,124,128,129,0
2243,126,128,125,127,127,128,126,128,0
2246,130,128,127,127,126,124,129,126,0
2255,125,127,131,130,133,128,129,129,0
2258,128,128,129,130,134,127,125,127,0
2262,129,129,127,128,126,128,125,127,0
2265,129,128,129,128,127,129,130,126,0
2269,125,126,128,128,125,127,125,125,0
2272,128,126,128,126,127,127,126,128,0
2275,128,129,129,128,130,130,129,128,0
2279,125,128,125,128,126,128,127,128,0
2283,125,126,129,129,129,126,128,127,0
2286,128,128,128,130,134,128,129,126,0
2289,132,129,129,126,125,129,127,127,0
2293,129,128,128,128,125,126,124,126,0
2295,129,125,128,128,124,128,127,127,0
2298,123,126,128,127,125,126,125,127,0
2302,129,129,127,128,126,128,126,126,0
2305,129,128,129,128,128,129,128,126,0
2309,128,128,129,127,126,127,129,129,0
2313,127,127,129,129,134,128,130,128,0
2316,125,129,128,126,128,129,127,127,0
2319,128,128,126,128,127,129,125,127,0
2322,130,127,127,126,126,127,127,125,0
2325,124,128,128,125,125,128,124,127,0
2328,126,128,126,127,130,129,132,128,0
2330,127,127,126,127,126,128,128,127,0
2334,128,127,129,127,128,125,131,129,0
2337,128,127,129,130,136,128,129,126,0
2341,128,128,126,127,126,129,127,127,0
2344,129,128,129,127,124,126,125,127,0
2348,130,128,128,127,123,126,126,126,0
2351,128,128,128,126,127,127,129,126,0
2355,129,128,127,127,129,130,130,130,0
2359,127,128,126,127,127,129,129,127,0
2363,128,128,129,128,124,126,128,128,0
2369,126,127,129,130,133,127,131,129,0
2373,127,127,127,128,128,129,127,128,0
2376,128,128,126,127,129,129,129,127,0
2380,129,127,127,127,127,126,126,125,0
2382,126,126,128,126,126,127,127,128,0
2385,122,128,127,128,128,128,128,128,0
2388,128,128,127,127,125,128,128,128,0
2391,128,126,129,129,129,125,130,129,0
2395,128,127,129,130,136,128,130,129,0
2398,128,128,130,127,126,129,128,128,0
2402,128,128,126,127,125,129,127,128,0
2405,131,127,129,125,124,125,125,126,0
2409,128,127,130,128,126,126,126,127,0
2413,128,128,125,126,126,129,130,129,0
2416,128,128,127,128,127,127,125,125,0
2418,127,128,127,129,124,126,125,125,0
2421,125,127,128,128,132,127,133,129,0
2425,127,127,129,130,132,126,127,128,0
2428,128,129,127,128,127,128,125,127,0
2431,128,127,129,126,128,123,126,127,0
2435,129,127,130,125,125,123,125,126,0
2438,128,128,127,126,129,128,129,128,0
2441,125,129,126,128,127,129,128,128,0
2445,129,128,130,128,124,124,126,127,0
2448,128,126,129,128,123,127,125,126,0
2451,129,127,127,128,127,126,126,127,0
2454,129,129,128,128,127,129,126,128,0
2457,127,128,126,127,126,127,127,127,0
2462,129,128,130,131,141,129,136,130,0
2465,129,128,128,129,132,125,130,129,0
2472,132,129,127,126,126,129,125,127,0
2478,128,128,126,128,127,128,130,127,0
2481,126,127,130,128,133,128,133,129,0
2484,127,127,129,129,124,130,129,129,0
2487,131,129,126,125,125,130,129,129,0
2490,129,127,127,125,124,127,123,125,0
2493,127,128,129,128,125,127,126,127,0
2496,123,127,126,125,128,131,131,128,0
2500,128,128,126,127,126,127,126,128,0
2503,129,128,128,129,128,127,128,125,0
2507,128,127,130,128,126,122,123,125,0
2511,129,126,127,127,127,129,129,129,0
2515,128,128,127,128,128,128,126,125,0
2519,128,128,128,129,128,126,125,126,0
2522,124,127,127,128,127,124,124,126,0
2525,128,127,127,126,125,128,126,129,0
2528,123,129,127,129,130,128,129,128,0
2531,129,129,126,127,126,128,129,126,0
2535,129,127,128,126,125,126,131,128,0
2538,129,128,130,131,136,129,132,129,0
2542,127,128,128,127,128,131,131,129,0
2545,129,128,125,126,128,129,127,128,0
2548,130,126,131,127,125,124,129,128,0
2557,127,127,129,130,134,129,131,129,0
2560,125,128,127,127,126,129,126,129,0
2563,129,128,126,125,124,128,126,126,0
2567,128,126,128,128,125,123,123,127,0
2570,129,127,129,125,124,129,128,128,0
2574,128,129,126,127,125,126,127,129,0
2577,128,128,128,127,124,126,124,126,0
2581,127,126,128,128,125,128,126,128,0
2585,129,126,128,129,130,126,128,127,0
2589,125,128,127,127,127,128,126,129,0
2592,129,128,127,128,125,127,125,126,0
2597,126,128,128,128,124,127,123,125,0
2603,126,128,128,129,134,127,131,129,0
2608,129,128,127,128,131,129,127,128,0
2611,128,128,126,128,124,129,126,128,0
2614,128,128,128,126,124,124,125,127,0
2617,127,126,128,129,129,125,127,125,0
2620,125,128,126,126,127,128,128,129,0
2623,127,128,126,127,129,129,128,128,0
2626,128,128,127,127,125,129,127,128,0
2630,123,127,129,131,136,128,129,129,0
2633,127,128,126,128,131,128,125,129,0
2637,129,128,129,128,127,130,127,128,0
2640,129,127,126,126,123,126,126,127,0
2643,126,127,128,127,124,128,127,128,0
2647,129,128,126,127,126,128,126,128,0
2650,128,128,128,128,127,128,126,126,0
2652,128,127,127,128,127,128,124,126,0
2655,127,126,130,129,134,127,132,128,0
2658,127,128,129,131,135,127,125,128,0
2661,129,127,127,127,125,128,126,128,0
2665,129,128,128,127,124,125,124,125,0
2668,127,127,129,127,125,122,127,127,0
2671,125,127,125,127,125,128,129,129,0
2677,129,128,127,128,126,127,124,127,0
2680,128,128,131,128,124,127,127,127,0
2684,127,126,128,129,131,128,132,129,0
2687,127,128,128,129,127,130,131,129,0
2690,128,128,125,126,126,130,127,129,0
2694,129,128,127,126,127,129,128,128,0
2698,125,127,129,126,125,123,127,129,0
2702,128,128,128,129,134,128,127,128,0
2707,128,128,125,127,128,130,131,129,0
2713,129,127,125,127,125,127,125,128,0
2717,130,127,128,128,124,128,127,127,0
2721,126,127,126,127,123,126,126,128,0
2724,128,128,127,126,129,130,130,128,0
2727,127,128,126,127,126,129,128,128,0
2730,131,127,129,129,132,126,130,128,0
2733,128,127,129,129,131,126,129,128,0
2738,128,128,126,127,127,129,129,128,0
2755,129,128,128,126,124,126,125,126,0
2758,130,128,128,127,124,126,127,127,0
2762,128,128,129,129,134,126,125,128,0
2765,131,128,126,126,126,128,125,127,0
2769,129,128,127,128,130,129,127,127,0
2772,128,126,127,127,123,125,127,127,0
2776,130,127,128,126,128,128,129,128,0
2779,128,128,126,127,126,129,129,128,0
2783,129,129,129,129,127,124,125,126,0
2786,126,127,128,128,125,123,125,128,0
2792,127,126,128,128,127,126,128,128,0
2796,123,129,126,127,127,128,127,128,0
2802,129,129,128,128,125,126,127,127,0
2806,129,127,129,130,134,128,133,128,0
2809,127,127,128,129,134,128,131,129,0
2812,128,128,127,127,124,128,126,127,0
2816,130,128,130,126,126,130,128,128,0
2819,129,127,128,128,124,127,125,126,0
2822,126,126,129,128,133,127,131,129,0
2826,127,128,126,125,126,129,129,128,0
2829,128,128,125,126,130,131,128,127,0
2833,128,127,126,128,128,128,127,126,0
2839,125,126,127,128,127,128,128,125,0
2842,128,128,125,126,129,129,130,129,0
2848,126,129,125,127,130,129,128,128,0
2855,126,126,126,127,127,128,127,128,0
2862,126,126,128,126,126,127,124,126,0
2865,125,128,125,127,125,127,129,129,0
2869,129,128,126,127,126,127,125,128,0
2874,129,128,129,128,126,125,132,129,0
2877,128,127,129,129,135,128,133,129,0
2881,129,128,129,129,126,129,127,127,0
2885,129,128,127,126,125,128,126,128,0
2889,129,128,130,125,124,125,124,125,0
2893,124,125,131,125,123,127,125,127,0
2897,129,128,130,127,127,128,129,128,0
2900,125,129,125,128,127,128,127,128,0
2904,129,127,129,128,125,126,125,125,0
2907,127,127,130,131,134,128,133,128,0
2912,127,128,129,130,133,125,131,129,0
2915,128,129,126,127,125,127,127,128,0
2918,129,128,127,128,128,127,127,126,0
2922,127,127,127,125,123,126,129,128,0
2928,128,126,127,129,127,130,129,128,0
2932,128,129,125,128,129,128,129,129,0
2935,129,128,128,127,124,125,124,126,0
2939,128,128,127,126,124,126,130,127,0
2941,127,128,129,130,135,127,127,129,0
2945,129,129,126,128,129,129,128,128,0
2949,129,128,126,128,129,128,130,127,0
2953,129,127,128,127,123,124,124,127,0
2956,128,127,127,128,128,129,128,129,0
2960,129,129,128,127,130,129,129,128,0
2964,126,128,126,126,129,128,129,127,0
2968,126,126,127,128,126,125,125,126,0
2974,126,127,128,128,127,124,125,127,0
2977,128,128,127,128,127,129,126,128,0
2980,128,128,126,126,126,126,128,126,0
2985,125,127,130,130,133,127,132,128,0
2989,129,128,129,128,135,128,130,129,0
2992,128,125,127,128,127,130,128,128,0
2995,127,128,126,125,124,128,126,127,0
2999,129,128,128,127,126,122,124,126,0
3002,128,128,127,128,128,125,127,128,0
3005,129,129,127,129,125,126,124,128,0
3008,127,128,129,128,129,128,128,126,0
3050,128,127,130,127,123,123,127,128,0
3065,127,127,131,130,134,128,130,129,0
3074,127,128,125,128,127,129,128,128,0
3119,129,128,127,126,129,131,131,128,0
3157,127,127,127,126,125,128,128,126,0
3176,127,126,129,130,136,128,130,127,0
3184,125,128,125,128,128,130,128,128,0
3192,128,128,128,128,127,129,126,127,0
3197,126,127,127,127,126,125,124,125,0
3201,126,125,130,128,128,123,124,126,0
3205,129,129,127,126,129,128,127,128,0
3208,128,128,127,128,125,129,126,128,0
3211,131,126,128,127,127,123,124,126,0
3215,127,127,130,130,136,129,131,128,0
3218,127,128,128,130,130,129,128,128,0
3221,128,128,126,127,125,130,129,129,0
3225,128,127,128,127,125,126,125,126,0
3228,125,126,127,128,129,126,128,129,0
3233,127,129,127,128,130,130,132,128,0
3239,129,128,126,127,130,129,130,128,0
3244,128,127,127,127,124,127,127,127,0
3248,131,126,128,126,123,126,125,125,0
3252,125,128,125,127,126,128,128,129,0
3255,129,128,128,127,126,126,126,127,0
3258,129,127,127,127,126,127,125,126,0
3262,126,125,130,129,133,128,132,129,0
3265,127,128,128,130,130,129,129,129,0
3268,129,129,126,126,128,129,129,128,0
3272,128,128,126,127,125,128,128,126,0
3275,124,126,127,126,125,128,127,125,0
3279,128,126,127,126,127,129,129,129,0
3282,129,128,127,128,127,127,125,127,0
3285,127,127,129,128,125,125,124,126,0
3288,128,127,128,127,123,124,127,128,0
3291,128,128,128,129,133,125,128,128,0
3295,126,129,125,128,129,130,130,128,0
3297,129,128,128,128,126,125,126,127,0
3301,128,126,128,126,124,125,131,129,0
3304,129,128,128,130,135,129,130,128,0
3307,126,129,126,127,125,129,127,128,0
3310,131,127,128,127,123,126,125,127,0
3314,128,127,128,130,134,128,130,128,0
3317,128,127,128,129,123,131,130,129,0
3321,127,128,125,128,128,129,129,129,0
3324,128,128,126,127,127,130,130,127,0
3329,127,126,127,128,124,128,128,126,0
3331,130,128,128,128,126,127,125,127,0
3336,126,128,126,128,132,128,129,128,0
3340,126,128,126,126,129,127,126,125,0
3345,126,127,129,128,125,125,125,126,0
3353,127,128,128,126,128,128,128,128,0
3357,128,129,125,127,126,127,128,129,0
3360,128,128,128,127,124,125,128,129,0
3363,123,128,126,129,132,128,128,128,0
3367,129,128,129,130,133,128,128,126,0
3369,127,129,126,127,127,130,131,130,0
3373,130,128,127,127,124,128,128,129,0
3376,128,127,129,128,127,124,128,129,0
3379,128,128,128,130,135,128,129,126,0
3382,129,127,127,127,126,129,126,128,0
3386,128,128,126,128,130,131,130,128,0
3389,127,127,127,125,126,130,128,126,0
3391,127,127,127,126,123,128,125,127,0
3396,127,128,128,127,127,129,125,128,0
3399,125,128,125,126,127,128,129,129,0
3402,124,127,127,126,125,128,127,128,0
3405,124,127,130,131,134,128,133,129,0
3408,128,128,127,127,124,129,128,129,0
3411,129,128,127,127,124,126,125,127,0
3414,131,128,128,127,123,125,124,126,0
3417,127,127,128,127,124,126,125,125,0
3420,126,127,126,126,132,128,127,128,0
3423,125,128,126,126,129,129,128,128,0
3426,128,127,127,128,127,128,127,125,0
3429,128,127,128,127,126,128,128,127,0
3432,129,129,128,128,127,128,126,129,0
3435,128,128,128,127,125,127,126,127,0
3438,129,127,128,128,128,123,132,128,0
3442,128,127,130,129,135,128,130,128,0
3447,128,128,127,130,130,127,128,127,0
3452,128,128,126,128,128,129,127,126,0
3456,127,127,129,128,127,126,125,125,0
3461,128,126,128,125,125,129,126,128,0
3470,129,127,127,125,126,129,128,129,0
3476,128,128,126,127,125,126,129,128,0
3479,130,128,128,127,125,128,128,125,0
3483,124,127,132,130,134,128,133,129,0
3486,128,128,127,127,123,128,126,128,0
3489,130,128,127,127,128,130,128,129,0
3492,129,128,130,128,124,127,124,125,0
3495,131,127,128,126,126,127,126,128,0
3498,126,127,128,127,124,126,126,127,0
3500,129,129,127,128,128,126,125,126,0
3504,128,127,131,128,125,126,124,126,0
3507,123,126,127,128,134,126,132,129,0
3513,129,127,128,130,131,126,128,128,0
3517,129,129,126,128,131,130,131,129,0
3520,129,127,127,128,124,128,125,125,0
3523,124,127,130,125,123,124,124,126,0
3526,130,128,129,128,125,125,127,127,0
3530,128,128,129,126,133,128,126,128,0
3533,124,129,126,129,125,128,127,127,0
3536,129,128,129,129,132,128,131,128,0
3540,129,128,129,129,135,128,127,128,0
3543,128,128,126,126,126,130,131,130,0
3546,130,128,126,126,123,127,126,128,0
3549,128,128,129,129,129,126,128,126,0
3552,127,127,129,129,134,127,128,127,0
3556,128,129,126,126,129,130,128,129,0
3559,130,128,127,125,125,127,125,126,0
3562,126,126,127,127,126,127,125,124,0
3567,127,127,126,127,128,127,127,127,0
3573,127,128,127,129,130,129,129,128,0
3578,128,127,125,126,126,127,128,128,0
3583,129,127,127,127,127,122,128,128,0
3586,128,127,131,129,134,128,129,127,0
3589,128,129,126,127,128,132,130,128,0
3592,128,127,126,127,127,129,130,128,0
3596,127,127,126,125,125,127,128,128,0
3599,130,127,127,125,126,128,124,127,0
3602,128,128,128,127,130,130,130,129,0
3605,128,129,125,127,125,126,129,128,0
3608,128,126,127,126,126,128,127,125,0
3610,127,127,128,127,126,129,129,129,0
3613,128,129,126,127,127,128,128,129,0
3616,130,128,127,127,128,128,126,127,0
3619,128,126,130,130,134,128,133,129,0
3621,126,127,130,130,134,128,131,129,0
3624,127,128,126,126,125,129,127,128,0
3627,129,128,125,127,129,129,130,129,0
3630,127,127,126,128,130,126,129,127,0
3633,126,128,130,130,132,128,130,128,0
3636,125,127,127,125,125,129,126,127,0
3638,129,128,127,125,124,129,125,129,0
3641,130,128,130,128,126,128,127,126,0
3644,127,126,127,125,123,126,126,128,0
3647,128,128,126,127,124,128,127,128,0
3649,129,128,129,128,127,128,128,127,0
3652,125,127,126,129,124,125,125,125,0
3655,125,126,128,126,124,126,124,125,0
3657,127,128,128,128,127,128,126,128,0
3661,126,129,126,129,129,129,130,128,0
3667,127,128,127,129,125,128,125,125,0
3671,128,127,128,128,125,128,127,128,0
3677,122,128,128,128,128,128,127,128,0
3680,129,128,128,128,126,129,126,128,0
3683,128,128,127,128,128,123,126,127,0
3686,127,126,129,127,123,127,125,125,0
3691,125,127,128,130,135,128,133,130,0
3696,128,128,127,130,135,129,130,129,0
3698,129,128,128,129,135,129,131,129,0
3701,128,128,130,130,134,128,132,128,0
3705,128,127,126,127,128,131,130,128,0
3709,129,129,125,124,124,131,130,128,0
3712,129,127,126,125,123,127,128,128,0
3715,130,125,128,125,122,125,123,126,0
3718,128,128,127,127,129,128,130,129,0
3721,129,129,127,127,126,127,126,128,0
3724,129,128,130,128,129,126,125,127,0
3727,129,127,127,126,127,125,126,127,0
3731,126,128,128,125,123,127,126,130,0
3734,128,129,127,128,126,127,126,127,0
3737,128,128,127,128,128,127,127,126,0
3740,123,127,129,126,125,125,125,126,0
3743,126,125,128,126,127,127,128,127,0
3746,124,128,126,127,131,129,130,128,0
3749,124,127,127,128,127,128,127,128,0
3751,127,126,127,128,128,124,134,128,0
3755,129,128,129,130,133,128,128,128,0
3758,125,129,126,127,126,130,127,128,0
3762,129,128,126,126,127,130,129,128,0
3770,126,127,127,127,122,127,127,125,0
3774,130,128,127,127,125,128,124,126,0
3781,127,129,129,127,128,127,126,128,0
3786,127,128,126,128,127,128,128,127,0
3790,125,126,128,128,127,122,131,128,0
3793,128,128,131,130,134,128,127,127,0
3797,129,128,125,127,127,129,128,130,0
3801,129,128,128,126,125,128,125,127,0
3804,124,127,127,125,124,127,129,125,0
3807,128,127,128,127,126,127,128,129,0
3810,128,128,127,128,125,129,125,127,0
3814,125,128,127,129,127,127,125,126,0
3817,127,128,128,127,129,128,132,128,0
3820,128,127,129,131,134,129,128,128,0
3823,125,129,126,127,123,129,127,129,0
3827,129,128,129,128,129,129,127,128,0
3830,126,127,126,129,126,129,126,127,0
3832,124,126,126,127,123,126,125,128,0
3835,128,128,130,127,128,129,127,128,0
3843,125,127,126,126,128,129,132,127,0
3846,125,128,127,127,125,128,126,126,0
3851,125,126,131,130,134,128,132,129,0
3855,127,128,126,126,126,130,127,128,0
3859,129,128,126,128,126,129,128,128,0
3862,129,128,131,128,125,128,127,125,0
3865,129,125,129,130,133,128,129,128,0
3868,127,128,127,129,128,129,128,128,0
3872,127,128,126,126,128,129,128,128,0
3876,129,128,127,128,123,126,124,125,0
3879,130,127,128,127,124,127,124,126,0
3883,124,128,130,127,126,127,125,128,0
3887,129,129,127,128,129,129,129,129,0
3890,128,127,126,127,126,127,125,127,0
3895,126,126,128,127,126,128,128,128,0
3900,127,127,125,127,126,129,129,129,0
3906,129,128,128,128,129,124,126,127,0
3911,129,128,128,127,128,129,128,127,0
3915,128,128,130,129,135,129,131,128,0
3919,128,128,128,130,136,129,130,128,0
3922,126,128,126,125,129,132,132,128,0
3925,130,128,128,128,126,124,124,125,0
3928,127,125,129,125,124,127,125,127,0
3932,126,128,129,128,127,130,128,128,0
3935,129,129,126,127,127,129,127,127,0
3938,129,128,129,128,126,127,124,126,0
3942,128,126,129,131,133,127,131,128,0
3945,128,128,129,130,134,128,127,128,0
3947,129,129,125,127,126,129,128,129,0
3950,130,129,128,126,124,126,123,126,0
3954,128,127,127,125,122,126,124,125,0
3958,130,128,128,129,131,123,131,129,0
3961,129,129,125,127,126,128,127,128,0
3964,130,128,127,127,131,124,125,126,0
3967,129,127,127,127,126,126,126,127,0
3970,129,127,127,128,124,127,125,128,0
3974,129,128,126,128,127,128,128,128,0
3977,129,128,126,128,126,128,127,128,0
3981,128,126,127,129,136,128,130,128,0
3985,128,127,129,130,134,129,128,125,0
3989,128,128,125,127,124,128,124,128,0
3995,131,128,128,127,124,126,127,128,0
3998,128,128,127,126,123,124,130,126,0
4001,126,128,129,130,135,128,130,125,0
4006,132,128,126,125,127,130,129,129,0
4012,128,127,126,125,126,129,129,129,0
4016,127,127,127,127,127,125,126,127,0
4019,126,126,130,130,133,128,127,127,0
4023,127,128,126,126,126,128,127,128,0
4026,129,128,127,128,129,129,127,127,0
4029,128,128,126,127,124,127,127,127,0
4032,121,127,127,128,128,129,129,128,0
4036,129,128,126,127,128,129,129,129,0
4039,129,128,128,128,127,128,125,126,0
4042,125,127,127,128,125,122,124,125,0
4045,123,127,127,127,125,126,127,128,0
4048,129,128,128,128,127,126,126,127,0
4051,128,127,128,127,125,125,126,128,0
4054,127,127,128,127,128,126,125,127,0
4057,128,126,128,128,126,124,127,127,0
4060,127,128,128,127,127,129,129,129,0
4068,129,127,128,128,127,126,132,128,0
4063,128,129,126,127,126,127,127,128,0
4073,129,127,130,130,134,128,133,129,0
4079,128,129,128,129,131,130,131,130,0
4082,128,128,126,126,125,129,126,127,0
4085,131,128,130,125,125,128,125,126,0
4088,127,126,128,128,131,128,132,129,0
4092,128,128,128,129,126,129,131,129,0
4095,132,128,128,126,127,128,126,126,0
4099,126,127,127,128,129,126,126,125,0
4102,126,127,130,127,124,128,129,128,0
4105,129,127,126,127,125,128,127,128,0
4109,129,129,130,128,124,127,126,127,0
4112,130,128,128,127,124,126,124,127,0
4117,130,127,129,130,135,128,132,129,0
4121,127,128,129,129,126,131,130,129,0
4127,129,128,125,127,124,130,131,129,0
4133,128,128,127,127,123,124,124,126,0
4135,129,127,128,125,124,123,126,128,0
4138,131,128,126,127,127,129,128,129,0
4142,129,129,128,128,126,127,125,127,0
4146,130,128,131,129,127,128,126,126,0
4149,122,127,132,130,133,128,131,129,0
4152,126,127,131,130,134,128,129,126,0
4156,131,129,127,126,127,128,127,128,0
4159,130,128,127,125,123,128,123,127,0
4162,130,126,130,127,126,124,127,127,0
4165,126,127,127,130,125,128,125,128,0
4168,129,129,126,127,125,128,125,127,0
4171,127,128,126,126,129,128,130,129,0
4173,125,127,127,129,124,126,125,126,0
4176,127,127,128,126,127,128,129,129,0
4179,126,129,125,127,130,129,130,129,0
4186,128,127,127,127,127,125,130,129,0
4183,126,129,125,128,128,128,129,126,0
4189,128,127,130,130,134,128,129,125,0
4192,128,128,125,127,127,130,131,129,0
4195,128,128,126,126,124,128,130,128,0
4198,127,127,128,127,122,124,126,127,0
4201,128,127,128,127,125,128,128,128,0
4204,132,129,126,127,126,127,127,129,0
4207,129,128,128,127,124,128,124,126,0
4209,128,127,129,129,131,128,132,129,0
4212,127,128,129,129,136,128,127,125,0
4215,129,128,125,125,130,129,130,129,0
4219,128,128,125,127,124,128,128,127,0
4225,128,127,128,127,123,125,125,128,0
4228,127,127,128,126,127,130,127,128,0
4231,129,128,126,127,125,127,127,128,0
4234,129,128,128,127,128,127,126,126,0
4237,125,127,127,127,128,126,129,128,0
4241,127,127,129,130,133,128,129,129,0
4244,126,128,125,127,124,129,125,128,0
4247,129,128,128,125,126,128,125,126,0
4251,126,127,128,128,127,128,127,127,0
4254,125,125,129,127,127,129,126,128,0
4257,128,129,127,127,126,128,126,127,0
4260,129,128,126,128,125,128,127,127,0
4263,129,128,129,128,126,123,124,127,0
4267,123,127,130,129,135,127,132,129,0
4270,128,128,128,130,124,129,127,129,0
4273,129,128,126,127,127,129,130,129,0
4276,128,128,127,127,123,127,124,125,0
4279,126,126,127,125,123,125,124,126,0
4282,126,128,126,128,128,129,130,128,0
4285,126,128,125,127,129,129,132,127,0
4288,125,126,127,128,126,127,127,128,0
4291,126,126,129,129,131,126,132,129,0
4295,127,127,128,131,134,128,126,128,0
4298,128,128,127,127,127,130,126,127,0
4302,128,127,126,129,126,127,126,127,0
4305,124,126,128,127,126,127,127,129,0
4308,128,127,126,127,126,128,129,130,0
4311,129,129,128,128,128,129,127,127,0
4318,125,127,128,129,127,126,132,127,0
4322,127,128,129,130,132,127,131,129,0
4327,127,128,129,128,127,129,128,128,0
4333,128,128,126,125,131,129,128,127,0
4337,129,128,127,127,122,126,126,128,0
4341,131,127,130,128,125,126,126,126,0
4344,124,127,129,126,128,129,129,128,0
4347,128,128,125,126,127,128,129,129,0
4350,130,128,127,128,125,129,126,128,0
4352,129,127,131,131,131,127,129,128,0
4355,127,127,129,130,132,126,128,129,0
4358,129,128,125,127,127,129,128,129,0
4361,131,128,128,127,125,128,127,127,0
4366,126,127,127,125,124,126,124,124,0
4372,122,127,128,128,126,128,125,126,0
4376,129,129,129,129,129,128,126,126,0
4379,127,127,127,128,127,128,129,128,0
4383,123,127,129,126,124,124,124,127,0
4386,126,127,127,130,136,128,130,127,0
4389,124,128,125,128,132,130,129,129,0
4392,129,128,126,126,125,128,128,128,0
4396,129,127,128,127,124,127,124,126,0
4399,127,128,128,127,125,128,125,126,0
4403,129,128,127,127,130,128,128,127,0
4406,125,127,127,127,127,129,128,128,0
4409,129,126,127,127,126,127,127,128,0
4411,128,127,130,130,134,128,130,129,0
4415,128,128,128,127,127,130,131,130,0
4418,130,127,125,127,125,129,128,128,0
4426,129,128,128,128,127,123,125,126,0
4432,125,126,128,128,126,129,127,129,0
4436,130,128,125,126,125,128,127,128,0
4496,130,129,129,127,125,125,126,126,0
4503,127,128,127,127,126,123,127,128,0
4508,127,127,129,130,135,128,129,128,0
4512,127,127,125,129,131,130,129,128,0
4517,128,128,125,127,125,127,127,128,0
4565,131,127,128,127,124,126,125,125,0
4580,126,127,130,125,123,127,124,126,0
4588,127,128,126,128,130,130,127,128,0
4594,128,129,126,127,127,129,128,129,0
4601,125,128,130,128,126,125,124,127,0
4605,127,127,129,130,135,129,130,128,0
4609,128,128,128,129,128,129,127,127,0
4613,129,128,130,126,125,128,126,127,0
4616,128,128,126,128,124,129,125,126,0
4619,128,127,130,128,124,128,127,127,0
4624,123,128,125,127,128,128,132,128,0
4627,128,128,125,127,127,128,128,129,0
4630,130,127,127,127,127,128,124,126,0
4634,126,125,130,130,134,127,132,128,0
4637,127,128,128,129,126,129,125,128,0
4640,129,128,129,126,127,129,128,128,0
4645,130,128,128,127,125,128,123,126,0
4647,130,125,129,126,124,127,124,126,0
4650,125,128,125,128,127,128,129,129,0
4653,128,129,128,127,127,126,126,126,0
4656,128,128,129,128,127,124,124,125,0
4659,127,126,129,131,133,128,133,129,0
4662,128,128,128,130,134,126,129,127,0
4666,129,129,125,126,129,128,128,128,0
4680,129,127,127,127,124,126,129,127,0
4684,129,127,128,125,124,126,125,127,0
4688,130,128,129,127,128,126,126,127,0
4693,127,128,125,127,126,128,130,130,0
4698,127,128,127,127,125,128,127,127,0
4701,129,126,129,130,136,128,132,129,0
4705,128,128,129,130,133,128,130,130,0
4708,126,129,126,128,125,129,126,128,0
4711,128,127,126,125,125,128,127,128,0
4715,128,128,127,128,125,128,127,128,0
4718,128,127,126,128,128,130,129,129,0
4722,128,128,125,127,126,128,127,129,0
4725,130,128,130,126,128,127,127,127,0
4727,129,126,128,128,125,129,126,127,0
4730,128,127,128,127,125,126,127,128,0
4734,129,129,127,128,130,125,126,127,0
4737,127,128,128,128,127,126,125,126,0
4740,128,125,129,129,135,129,132,129,0
4743,128,127,129,130,135,127,129,129,0
4746,129,128,126,127,124,129,128,129,0
4751,128,127,126,128,129,129,130,128,0
4763,123,128,128,125,125,124,127,128,0
4767,128,128,129,129,132,127,126,128,0
4771,128,129,126,125,128,129,125,127,0
4777,129,128,128,128,127,128,126,126,0
4780,127,126,126,125,123,127,127,124,0
4835,125,127,128,129,130,126,129,128,0
4853,128,128,125,126,129,129,128,128,0
4865,128,128,128,128,126,127,125,126,0
4873,124,126,127,127,125,125,124,126,0
4879,126,126,128,127,123,127,126,127,0
4883,129,129,126,127,130,129,130,129,0
4887,126,129,127,127,126,126,125,128,0
4892,127,127,127,128,127,127,127,127,0
4895,128,126,127,127,125,126,126,128,0
4899,129,128,127,127,126,127,127,129,0
4902,130,129,126,127,125,125,127,128,0
4905,128,128,129,128,131,127,131,128,0
4908,128,127,130,130,133,128,131,129,0
4912,127,127,129,127,129,127,125,127,0
4915,128,127,128,128,128,129,127,126,0
4919,124,127,128,126,125,128,125,126,0
4922,128,126,128,125,126,127,128,127,0
4926,126,128,125,127,127,129,129,128,0
4929,130,128,129,127,126,127,125,126,0
4932,126,127,128,127,125,128,127,127,0
4936,129,127,131,130,135,127,131,128,0
4939,127,128,128,130,129,131,131,130,0
4942,129,128,126,127,125,127,124,127,0
4945,130,127,128,128,125,125,127,127,0
4948,125,126,127,125,125,128,128,128,0
4951,129,128,127,128,125,128,125,129,0
4955,129,129,128,127,128,126,126,127,0
4958,128,127,126,127,126,127,128,125,0
4962,127,126,129,126,123,124,126,128,0
4965,126,128,127,127,126,129,129,129,0
4968,127,128,127,128,129,129,129,128,0
4975,127,128,127,128,125,125,125,127,0
4979,126,127,129,129,137,127,130,128,0
4984,128,128,129,130,134,128,129,128,0
4990,130,128,126,126,127,129,128,130,0
4995,131,128,126,125,125,128,130,128,0
4998,123,127,130,125,126,128,127,127,0
5001,129,128,128,130,131,129,130,129,0
5004,129,129,126,128,128,130,126,128,0
5007,128,128,129,128,126,128,128,127,0
5010,126,127,127,126,127,124,132,129,0
5014,129,128,129,130,135,129,129,126,0
5017,131,129,128,128,127,129,126,127,0
5020,126,128,130,128,128,127,126,127,0
5024,125,127,129,128,126,123,125,127,0
5028,128,128,129,128,129,128,127,127,0
5030,125,128,125,128,128,129,126,128,0
5034,128,128,127,127,128,128,127,128,0
5039,127,126,127,126,128,124,126,128,0
5044,127,127,129,130,136,127,125,128,0
5049,130,129,129,128,129,129,125,127,0
5054,128,128,129,128,128,128,127,127,0
5057,124,126,127,125,123,127,125,127,0
5060,127,128,128,126,124,128,129,129,0
5064,128,129,126,127,126,127,125,127,0
5068,127,128,128,127,126,127,126,127,0
5072,128,126,127,128,126,128,128,127,0
5075,128,128,129,130,136,128,131,129,0
5078,128,128,126,128,130,132,131,129,0
5080,129,128,126,125,125,129,129,127,0
5085,128,125,129,127,126,127,125,127,0
5090,130,128,128,127,122,126,124,127,0
5101,127,128,125,126,129,129,127,128,0
5106,126,127,126,126,132,128,129,126,0
5112,127,126,128,129,130,128,133,128,0
5116,127,127,130,129,135,128,130,129,0
5120,126,128,127,127,126,129,127,128,0
5146,128,128,125,126,125,128,131,128,0
5158,128,128,128,126,123,125,124,127,0
5163,131,126,127,126,124,129,126,125,0
5167,127,129,128,126,129,129,130,128,0
5171,125,128,125,127,127,129,129,129,0
5175,125,127,127,126,126,128,126,128,0
5178,123,127,128,126,126,128,127,129,0
5182,128,128,127,128,126,127,125,128,0
5185,128,128,126,128,126,129,128,128,0
5188,129,127,127,127,125,127,127,128,0
5192,126,127,129,130,137,129,132,129,0
5195,129,127,128,130,133,125,127,128,0
5199,129,129,130,126,128,126,126,126,0
5203,128,126,129,126,124,125,125,125,0
5206,127,127,127,125,124,128,128,128,0
5209,128,126,127,128,129,129,130,127,0
5213,126,128,125,127,127,127,128,128,0
5215,130,127,128,128,127,126,127,125,0
5218,128,126,128,128,131,127,132,128,0
5221,127,129,128,130,133,129,129,129,0
5225,130,129,127,126,124,129,129,129,0
5230,130,128,127,127,125,125,124,126,0
5233,125,127,129,126,124,123,124,125,0
5236,128,128,129,128,128,129,128,128,0
5238,129,128,128,126,130,128,128,128,0
5241,124,127,126,128,127,128,127,128,0
5245,125,124,129,130,135,127,131,129,0
5249,127,128,129,130,127,130,130,129,0
5253,129,128,125,127,125,129,131,129,0
5257,129,128,128,126,124,127,129,128,0
5261,130,126,129,128,125,128,127,128,0
5267,130,128,126,126,128,129,130,129,0
5270,128,128,127,127,126,126,125,127,0
5276,128,128,128,128,125,126,125,127,0
5282,128,127,130,130,135,128,132,128,0
5286,128,128,128,131,129,128,124,128,0
5289,127,129,127,128,126,129,128,128,0
5294,129,128,127,126,123,127,124,126,0
5297,130,125,129,128,126,127,127,125,0
5299,130,126,128,126,126,127,125,127,0
5303,127,129,126,127,129,129,130,129,0
5306,130,128,127,128,125,125,124,126,0
5310,127,127,128,126,125,126,125,126,0
5312,124,127,128,128,128,127,126,128,0
5317,125,129,125,129,129,129,127,128,0
5320,128,128,127,128,128,128,126,127,0
5323,123,127,128,128,126,123,129,128,0
5326,129,127,130,130,134,128,130,129,0
5330,127,128,125,127,126,129,126,130,0
5333,129,128,127,127,123,127,124,126,0
5337,128,125,127,126,126,127,125,124,0
5340,127,126,126,128,126,128,127,126,0
5343,126,128,126,129,130,129,128,129,0
5346,129,128,127,127,127,129,128,128,0
5348,124,127,127,126,126,126,129,128,0
5351,129,128,130,129,135,129,131,129,0
5354,128,127,125,127,126,129,126,128,0
5357,128,128,126,125,127,129,130,128,0
5360,128,127,128,127,122,126,126,125,0
5363,127,127,130,127,127,125,127,127,0
5367,126,128,125,127,128,129,131,129,0
5372,128,127,126,127,125,126,126,128,0
5376,129,127,129,127,124,128,127,125,0
5378,126,127,130,129,135,128,130,129,0
5381,128,129,126,128,128,129,127,127,0
5384,129,128,126,128,127,129,131,128,0
5387,130,127,127,127,125,129,125,128,0
5391,124,127,128,125,122,126,127,129,0
5394,125,127,125,126,126,130,129,130,0
5397,128,129,127,127,125,127,125,127,0
5400,128,127,128,128,129,125,130,128,0
5404,127,126,129,130,134,128,130,128,0
5407,124,127,126,128,127,129,126,128,0
5410,129,128,128,128,128,129,127,127,0
5414,125,127,126,126,126,128,130,127,0
5417,125,126,127,125,124,128,127,126,0
5420,128,128,127,128,132,128,129,128,0
5424,127,129,125,127,126,129,128,128,0
5427,129,128,127,127,128,123,124,126,0
5430,123,126,129,126,126,128,128,128,0
5434,127,127,126,128,126,128,128,129,0
5437,128,129,126,128,127,129,129,128,0
5441,129,128,127,127,126,125,128,127,0
5444,129,126,129,130,137,128,131,128,0
5448,128,127,128,130,135,127,128,128,0
5452,130,128,125,126,131,130,130,128,0
5456,128,128,126,127,124,127,129,125,0
5460,126,125,128,127,128,127,133,128,0
5463,129,128,129,130,133,128,127,129,0
5466,130,127,128,126,127,128,126,127,0
5470,129,129,127,126,125,129,126,127,0
5474,125,127,128,125,123,125,124,126,0
5478,126,129,129,128,129,128,127,127,0
5484,127,128,125,129,129,128,126,128,0
5488,126,128,125,126,126,127,127,127,0
5491,128,127,128,127,126,127,126,127,0
5495,126,127,127,128,129,127,127,128,0
5498,128,128,126,128,130,130,127,128,0
5503,127,128,127,127,128,128,128,126,0
5506,130,127,129,130,137,127,129,128,0
5509,128,127,129,130,134,128,131,128,0
5511,126,128,125,128,129,129,125,127,0
5514,128,128,127,128,127,131,128,128,0
5517,125,126,127,125,126,128,125,127,0
5520,128,127,127,126,124,125,127,130,0
5524,123,128,125,128,128,128,128,129,0
5527,129,128,128,128,125,129,128,128,0
5531,124,127,127,128,131,128,132,128,0
5536,129,128,130,130,135,128,129,129,0
5539,126,129,126,126,128,130,126,128,0
5542,127,128,126,127,126,129,130,128,0
5545,129,127,129,128,129,126,129,128,0
5548,128,128,129,128,133,125,125,127,0
5551,131,127,127,125,125,130,130,128,0
5555,128,127,127,127,124,127,125,127,0
5558,127,127,128,125,123,126,125,125,0
5561,127,127,130,128,125,127,127,128,0
5565,126,128,125,127,128,127,129,130,0
5569,127,128,127,128,125,126,126,127,0
5578,129,126,128,126,126,127,128,127,0
5584,126,127,129,127,124,126,124,126,0
5587,127,129,127,129,129,129,128,128,0
5593,126,128,125,127,129,129,128,127,0
5597,129,127,127,127,127,125,124,126,0
5603,127,127,128,128,126,125,132,129,0
5606,128,129,128,131,134,129,129,127,0
5609,128,127,125,128,125,128,128,128,0
5613,129,125,129,126,127,124,125,127,0
5616,125,127,128,125,127,127,126,127,0
5619,124,129,125,127,126,128,127,128,0
5623,129,128,128,128,125,129,127,128,0
5626,130,127,128,126,127,127,126,127,0
5629,121,127,129,130,133,128,132,129,0
5632,128,128,129,130,133,125,131,129,0
5635,129,128,126,126,125,129,128,128,0
5638,132,128,130,125,125,125,125,127,0
5641,126,124,128,125,123,123,125,127,0
5647,129,128,129,129,132,128,129,129,0
5650,129,128,127,128,127,129,128,129,0
5654,129,128,126,127,125,124,126,126,0
5658,129,127,129,130,134,128,131,128,0
5662,127,127,129,130,133,127,127,127,0
5665,129,129,129,128,131,129,127,128,0
5668,128,127,130,126,125,128,126,128,0
5672,128,126,127,126,126,123,125,127,0
5675,126,127,125,128,128,128,129,129,0
5679,127,128,125,127,127,128,129,128,0
5682,129,128,129,127,124,125,125,126,0
5685,127,127,131,129,135,127,131,128,0
5689,127,128,129,130,134,127,126,129,0
5693,131,128,126,127,128,128,126,128,0
5697,129,128,129,126,124,128,125,127,0
5701,128,127,128,127,124,126,125,125,0
5707,126,127,125,127,124,127,127,129,0
5713,128,128,126,127,125,126,129,130,0
5717,129,128,126,126,128,127,128,125,0
5720,129,127,129,126,126,127,127,124,0
5723,128,128,128,128,126,128,127,128,0
5727,129,128,125,127,128,128,128,128,0
5730,128,128,127,126,127,125,128,128,0
5733,126,127,129,130,136,128,132,129,0
5736,128,127,129,129,135,128,130,128,0
5739,124,129,126,127,130,129,128,128,0
5743,128,128,127,127,125,127,125,127,0
5746,124,128,129,126,123,126,125,127,0
5749,124,128,127,125,129,123,127,128,0
5752,129,129,128,128,127,128,125,128,0
5755,126,127,126,127,127,129,128,127,0
5758,127,125,128,127,123,125,126,127,0
5761,128,126,127,127,124,127,125,126,0
5764,129,129,129,128,128,128,127,128,0
5768,125,128,127,127,127,129,128,127,0
5771,129,127,130,131,135,128,131,128,0
5775,129,127,129,131,134,128,129,128,0
5779,126,128,125,126,130,129,126,128,0
5783,129,128,129,127,129,128,127,128,0
5786,128,128,128,127,123,125,128,127,0
5789,128,126,128,125,124,128,127,128,0
5792,131,128,128,127,128,126,125,127,0
5795,128,129,127,128,128,129,129,127,0
5798,124,127,128,128,124,127,123,125,0
5801,128,127,128,127,122,124,125,126,0
5806,129,128,128,128,125,126,128,129,0
5810,129,129,127,128,126,128,126,127,0
5816,128,127,129,128,126,124,125,126,0
5820,122,126,128,127,128,126,128,127,0
5824,127,128,125,127,127,128,128,129,0
5828,128,128,125,128,127,130,131,129,0
5831,127,127,130,130,133,128,132,129,0
5835,129,127,129,129,133,129,130,129,0
5838,129,128,128,129,126,131,131,128,0
5841,129,128,126,127,127,129,127,128,0
5844,129,128,128,127,124,127,124,125,0
5847,128,127,129,127,126,130,124,126,0
5850,125,127,126,128,130,128,133,129,0
5853,129,129,127,127,125,126,124,127,0
5856,127,126,130,127,124,125,123,126,0
5859,127,127,127,127,127,126,131,129,0
5862,127,128,128,130,129,127,128,127,0
5866,129,128,129,127,130,131,127,128,0
5868,127,127,126,127,125,127,127,128,0
5872,126,127,127,125,122,127,131,129,0
5879,127,128,128,130,129,127,126,128,0
5884,128,128,126,128,131,129,128,128,0
5887,128,127,127,126,128,128,129,128,0
5890,124,126,131,125,123,126,124,127,0
5893,121,127,127,125,128,128,127,127,0
5898,126,129,125,127,129,129,130,129,0
5902,129,128,127,127,125,125,126,127,0
5906,126,126,128,129,133,127,130,128,0
5911,126,127,129,131,132,124,127,128,0
5914,130,128,128,127,125,129,126,128,0
5918,129,128,127,126,123,126,130,125,0
5921,129,125,128,125,123,126,125,125,0
5925,128,126,129,128,127,127,127,128,0
5931,124,129,125,128,129,129,130,129,0
5937,130,128,127,127,125,125,125,126,0
5940,126,127,128,128,125,128,130,129,0
5944,128,128,129,130,135,129,129,128,0
5947,124,129,126,128,131,130,128,127,0
5950,127,128,125,126,125,128,130,128,0
5954,131,127,128,125,123,125,130,128,0
5957,127,128,128,130,134,128,129,128,0
5960,128,128,128,128,129,129,128,128,0
5963,128,128,127,126,126,129,127,127,0
5966,130,127,128,128,126,123,123,125,0
5969,125,127,127,126,125,128,126,128,0
5972,129,128,127,128,125,127,127,127,0
5975,127,128,127,128,124,128,126,127,0
5978,128,127,129,126,126,126,126,125,0
5981,127,127,128,126,127,126,125,127,0
5984,126,128,125,128,129,129,129,129,0
5987,128,128,126,128,126,125,125,127,0
5992,128,127,129,129,131,127,132,128,0
5996,128,127,129,130,136,128,131,128,0
6000,128,128,126,125,124,129,128,128,0
6002,131,128,130,127,125,129,125,127,0
6006,131,127,131,127,123,125,127,126,0
6009,127,127,127,127,123,127,124,126,0
6012,127,128,125,126,128,129,131,129,0
6018,129,128,127,128,127,129,128,128,0
6022,128,127,127,127,126,127,127,127,0
6024,124,126,128,127,127,127,127,128,0
6028,128,128,128,128,127,127,127,128,0
6033,127,127,126,128,126,126,125,126,0
6038,127,127,128,127,132,127,131,129,0
6041,128,127,130,129,137,128,132,129,0
6044,127,128,127,126,126,130,128,128,0
6047,130,129,126,127,127,129,130,128,0
6050,128,127,127,126,124,126,125,127,0
6053,128,127,129,128,124,128,126,126,0
6056,124,128,125,127,127,128,128,129,0
6059,129,128,128,128,126,126,126,128,0
6062,130,128,128,127,126,128,125,126,0
6066,127,125,128,129,135,128,131,129,0
6069,127,128,127,130,130,127,126,128,0
6073,126,129,127,127,128,129,127,126,0
6076,125,127,126,126,127,127,126,128,0
6078,127,126,128,125,124,128,125,126,0
6081,128,128,127,126,128,128,127,128,0
6086,127,129,127,127,126,130,127,128,0
6089,127,127,127,128,129,125,128,127,0
6092,128,127,129,130,135,128,132,128,0
6095,127,128,129,129,125,128,125,129,0
6098,130,129,128,127,125,126,127,128,0
6100,129,128,127,127,123,127,125,128,0
6105,129,127,127,128,125,127,126,127,0
6108,126,127,126,128,128,127,125,127,0
6112,126,129,127,126,131,129,130,129,0
6115,126,128,126,127,125,127,126,127,0
6119,127,125,128,130,136,129,131,128,0
6121,127,128,128,130,134,128,126,129,0
6124,129,129,129,128,131,129,127,127,0
6127,129,127,126,128,129,129,129,128,0
6132,128,127,127,125,122,127,124,125,0
6135,126,127,129,126,127,129,129,129,0
6139,128,128,126,127,125,127,127,127,0
6143,128,128,130,127,126,123,125,127,0
6149,130,127,127,126,124,127,126,126,0
6152,129,127,127,127,125,126,128,129,0
6155,129,129,125,127,130,128,129,128,0
6158,128,128,126,127,126,128,128,126,0
6161,123,127,130,130,135,127,133,128,0
6165,130,128,129,130,136,128,130,129,0
6168,125,129,126,126,130,130,130,129,0
6171,130,128,130,126,127,128,127,127,0
6175,124,127,128,125,124,127,128,127,0
6178,128,128,130,129,130,124,125,127,0
6182,128,129,127,126,126,129,125,127,0
6186,128,128,129,128,130,129,131,129,0
6189,126,127,127,126,122,126,123,124,0
6193,126,127,127,127,125,127,127,128,0
6197,131,129,127,127,126,128,125,127,0
6200,128,128,130,128,127,127,125,126,0
6203,128,127,127,127,127,125,124,126,0
6206,125,127,128,131,134,128,131,128,0
6209,127,127,126,128,127,129,129,128,0
6212,128,128,125,127,127,128,128,128,0
6215,129,126,128,128,124,128,126,126,0
6218,128,126,130,127,124,126,125,127,0
6221,128,129,129,127,129,129,130,129,0
6224,127,128,125,127,126,127,128,128,0
6228,129,127,128,129,131,126,129,129,0
6231,129,127,130,130,135,128,131,129,0
6234,128,128,127,127,124,129,132,130,0
6237,129,128,126,127,126,129,126,128,0
6242,130,127,127,126,127,128,127,128,0
6247,131,127,128,126,126,128,127,129,0
6250,123,128,125,127,125,127,129,129,0
6254,128,128,127,128,125,127,125,126,0
6256,125,128,130,127,125,124,126,127,0
6260,127,126,129,130,135,128,131,128,0
6263,127,128,128,131,131,126,126,127,0
6269,129,129,129,128,127,128,126,127,0
6273,125,126,126,128,126,128,127,128,0
6277,127,126,127,126,123,126,125,127,0
6280,126,128,127,127,126,128,127,129,0
6283,129,128,126,127,126,126,127,128,0
6287,129,127,128,127,127,128,128,128,0
6291,130,125,128,127,128,127,131,128,0
6294,128,128,128,131,134,129,128,127,0
6297,130,129,127,128,126,129,129,128,0
6301,129,127,126,126,123,126,127,126,0
6305,123,127,128,127,127,123,125,127,0
6308,129,128,127,126,126,128,128,127,0
6311,125,128,125,128,128,129,129,128,0
6315,129,128,127,127,124,125,125,127,0
6318,128,127,129,130,136,128,131,128,0
6322,128,128,128,130,134,129,128,126,0
6325,129,129,127,129,130,132,132,129,0
6327,129,128,127,127,122,127,125,128,0
6330,124,127,128,126,123,127,125,126,0
6334,124,128,125,126,125,127,130,129,0
6337,129,128,127,127,126,128,127,128,0
6341,129,128,127,128,126,127,125,126,0
6344,128,127,130,127,124,123,128,129,0
6348,126,128,128,131,133,129,128,125,0
6355,128,128,127,128,126,129,127,127,0
6358,128,127,127,128,129,128,128,128,0
6363,124,127,128,128,124,127,126,126,0
6369,124,127,126,127,128,129,127,128,0
6374,126,129,125,127,128,129,128,128,0
6377,128,128,130,129,127,124,125,126,0
6380,128,128,130,130,134,128,133,129,0
6383,128,127,128,129,135,128,128,129,0
6386,131,129,127,127,127,130,128,129,0
6389,130,128,130,127,123,126,124,126,0
6393,127,127,127,125,127,125,126,125,0
6396,126,127,127,127,124,126,126,129,0
6399,130,128,130,127,129,127,127,126,0
6403,126,128,127,128,130,124,127,128,0
6406,127,128,129,130,134,127,131,128,0
6409,129,127,129,130,134,128,127,125,0
6413,129,129,126,128,126,129,126,127,0
6416,126,126,130,128,127,128,126,126,0
6419,125,127,126,127,124,127,127,127,0
6422,128,127,127,125,125,128,127,128,0
6426,129,128,127,127,126,127,127,128,0
6429,129,129,128,127,129,128,128,127,0
6433,124,127,128,129,129,125,129,129,0
6436,128,127,129,130,134,127,129,128,0
6438,128,128,125,126,126,128,126,127,0
6441,128,128,128,128,128,129,130,128,0
6446,128,125,128,128,126,127,124,125,0
6450,126,126,129,128,127,125,125,126,0
6453,129,128,125,127,126,128,132,129,0
6456,129,127,126,127,125,126,128,128,0
6459,129,126,127,127,123,126,125,126,0
6463,124,127,130,130,134,128,131,129,0
6467,128,128,128,129,127,129,126,127,0
6471,128,128,128,126,129,128,125,127,0
6476,128,127,126,127,127,128,129,127,0
6483,128,127,129,126,123,125,124,126,0
6487,128,127,127,128,129,129,130,129,0
6490,126,129,125,126,129,129,129,128,0
6493,128,128,126,128,126,129,126,127,0
6496,129,126,128,126,124,127,126,127,0
6499,124,127,127,128,128,128,129,128,0
6502,128,128,127,128,128,130,128,129,0
6505,129,127,127,127,133,129,133,128,0
6508,129,127,130,131,137,127,131,128,0
6511,127,128,129,129,130,125,127,128,0
6514,130,129,127,127,124,128,129,129,0
6517,129,128,128,127,123,126,124,125,0
6520,125,127,127,124,124,126,125,124,0
6524,125,127,126,125,128,129,131,129,0
6527,128,128,125,127,126,128,128,129,0
6529,129,128,130,127,124,124,124,126,0
6534,121,127,128,128,123,125,131,129,0
6537,128,128,128,130,135,129,130,129,0
6543,125,127,126,128,125,129,126,127,0
6546,128,128,129,128,126,131,130,125,0
6550,128,127,130,128,128,125,128,128,0
6553,127,127,128,130,128,128,128,128,0
6557,129,129,127,128,126,129,126,127,0
6560,129,128,126,128,130,128,130,127,0
6563,127,127,127,126,124,126,128,126,0
6567,127,126,126,127,124,126,127,128,0
6569,128,129,127,127,128,127,125,127,0
6572,126,128,127,127,129,128,127,128,0
6575,128,127,128,128,126,126,126,127,0
6579,126,127,129,128,124,124,129,129,0
6584,128,128,125,128,130,130,128,129,0
6590,127,128,125,127,129,129,129,127,0
6594,127,128,129,131,134,128,132,128,0
6597,127,127,130,129,134,128,130,127,0
6601,126,128,126,128,128,129,131,128,0
6605,128,127,126,126,128,129,130,129,0
6607,127,127,127,125,123,125,128,128,0
6610,128,127,130,128,134,127,128,129,0
6614,129,128,125,127,123,129,130,129,0
6617,128,128,129,128,125,129,126,127,0
6621,127,127,127,127,126,127,126,127,0
6626,124,126,127,125,124,128,128,129,0
6630,128,128,125,127,127,129,129,129,0
6633,129,128,130,129,129,128,125,127,0
6636,127,127,128,126,128,123,126,127,0
6639,128,127,128,127,123,124,128,128,0
6642,129,128,128,128,125,126,127,129,0
6646,129,128,129,129,127,128,127,128,0
6650,125,127,128,129,130,127,130,128,0
6653,129,127,130,129,135,128,132,129,0
6656,129,128,126,128,130,129,128,128,0
6660,128,128,126,127,125,129,129,129,0
6663,129,127,128,126,122,124,125,126,0
6668,128,127,130,128,124,128,125,126,0
6674,128,128,126,129,128,129,128,127,0
6677,127,127,127,127,130,129,131,129,0
6683,125,127,130,129,133,127,131,129,0
6680,125,127,127,126,125,128,126,125,0
6687,127,128,127,128,127,129,126,127,0
6690,127,128,128,128,128,129,129,128,0
6695,129,128,128,127,127,127,127,126,0
6702,125,126,128,128,123,125,124,125,0
6707,127,128,127,128,129,128,128,128,0
6711,126,128,125,128,128,128,128,129,0
6714,126,128,126,128,127,127,127,127,0
6717,128,126,128,126,125,128,126,127,0
6721,129,128,128,130,136,127,129,128,0
6724,125,128,125,127,126,128,125,128,0
6727,129,127,126,127,124,126,126,126,0
6730,129,125,129,129,133,128,131,128,0
6734,128,128,128,129,126,129,132,129,0
6737,130,128,126,127,126,130,127,129,0
6740,129,128,127,128,126,129,126,126,0
6744,125,125,130,126,123,124,125,126,0
6747,126,128,127,128,126,130,127,128,0
6751,128,128,125,128,128,129,130,129,0
6754,127,128,127,127,124,125,127,128,0
6758,126,127,130,130,133,128,132,129,0
6761,128,128,129,130,130,125,124,127,0
6764,128,129,129,126,126,129,125,128,0
6767,128,128,126,128,128,128,123,125,0
6769,127,127,126,128,123,125,125,127,0
6772,129,126,128,127,125,126,125,128,0
6777,127,129,126,127,132,129,130,128,0
6786,126,128,126,127,129,127,127,126,0
6789,125,127,127,128,124,127,126,127,0
6792,124,127,130,130,135,127,130,129,0
6796,129,127,128,126,126,127,127,128,0
6800,129,128,130,126,127,126,125,125,0
6803,128,127,128,128,126,127,127,127,0
6808,128,128,129,131,132,126,127,126,0
6812,129,128,126,126,127,129,127,128,0
6816,128,128,128,128,124,127,126,127,0
6823,128,125,129,127,123,124,126,127,0
6826,130,127,129,129,130,126,127,127,0
6830,129,128,125,128,130,130,130,128,0
6833,128,128,125,127,127,128,127,127,0
6836,127,126,128,126,126,128,128,129,0
6839,128,127,128,130,136,127,131,128,0
6843,123,129,129,127,125,128,125,128,0
6846,129,128,128,128,125,126,124,126,0
6849,128,127,128,128,127,128,127,127,0
6852,124,127,127,126,124,125,127,128,0
6857,129,129,127,129,127,127,126,128,0
6861,125,127,127,128,130,128,129,129,0
6866,126,127,129,131,136,128,130,128,0
6869,128,127,129,129,137,127,130,128,0
6873,126,129,129,126,125,128,127,127,0
6876,128,129,127,127,126,128,127,128,0
6879,131,127,128,127,122,126,127,127,0
6882,127,126,128,125,125,128,127,128,0
6886,128,128,128,128,130,130,130,128,0
6889,127,129,126,127,125,127,127,128,0
6892,127,126,128,126,128,125,126,125,0
6895,128,127,128,127,126,127,128,128,0
6899,129,128,127,127,128,129,130,129,0
6902,128,128,127,127,127,127,129,129,0
6905,129,128,127,127,127,127,129,128,0
6908,127,127,130,130,135,127,133,129,0
6911,128,128,129,129,127,129,131,129,0
6913,129,128,127,127,124,127,125,126,0
6917,128,128,127,126,124,128,126,125,0
6923,127,126,128,128,123,125,125,127,0
6928,128,128,126,126,125,127,128,129,0
6931,129,128,128,128,126,126,125,126,0
6935,128,128,128,127,125,128,126,127,0
6939,128,127,130,130,137,128,130,128,0
6942,127,128,128,129,127,128,128,128,0
6945,129,128,125,127,129,128,128,128,0
6948,127,128,125,125,124,128,127,128,0
6952,130,126,128,125,123,128,125,125,0
6955,126,128,128,127,125,128,127,128,0
6958,128,128,126,128,126,128,128,127,0
6961,125,126,127,128,131,126,128,124,0
6964,126,127,129,126,126,124,127,127,0
6968,128,126,127,128,127,125,125,127,0
6971,126,128,126,129,129,129,129,129,0
6974,128,128,127,128,126,127,126,128,0
6977,128,126,127,129,136,128,131,128,0
6981,128,128,130,130,135,128,130,129,0
6984,123,129,127,128,126,129,127,128,0
6987,127,127,126,126,126,129,126,126,0
6992,126,126,127,125,124,127,125,125,0
6996,128,127,127,125,124,129,126,128,0
6999,129,128,126,128,127,128,126,128,0
7002,128,129,128,127,124,126,128,129,0
7005,123,127,128,131,136,127,131,128,0
7008,129,127,131,129,134,126,127,127,0
7011,127,128,125,127,130,130,127,128,0
7014,128,127,125,125,127,129,129,127,0
7018,130,127,128,126,124,126,125,126,0
7021,128,126,128,126,125,126,125,128,0
7026,128,128,125,127,126,129,127,128,0
7031,129,128,126,128,126,128,127,128,0
7036,128,127,127,128,126,127,126,126,0
7041,125,127,128,130,135,128,132,129,0
7045,125,128,125,126,126,129,129,129,0
7048,129,128,126,126,126,129,128,129,0
7052,127,127,126,127,124,127,128,124,0
7055,128,125,128,126,126,129,125,128,0
7060,128,128,125,128,128,129,128,129,0
7063,130,128,129,128,126,128,126,128,0
7068,123,127,128,130,129,127,132,128,0
7071,127,127,129,130,135,129,130,128,0
7074,127,127,127,127,125,129,126,128,0
7076,129,129,128,128,127,128,125,126,0
7079,130,125,131,128,123,124,125,126,0
7088,128,127,129,127,125,127,126,127,0
7091,128,128,125,128,127,128,126,128,0
7094,127,128,124,128,125,128,132,127,0
7098,128,127,126,129,131,125,128,128,0
7101,127,127,130,128,135,127,130,128,0
7104,130,129,126,126,126,129,129,128,0
7108,129,128,127,128,126,128,125,127,0
7112,127,127,127,128,127,130,126,127,0
7115,127,127,128,126,126,129,126,124,0
7119,128,128,128,128,124,128,125,127,0
7122,129,129,127,127,127,129,128,128,0
7125,129,127,126,127,124,127,128,127,0
7129,126,125,130,125,124,128,127,128,0
7132,129,128,127,127,125,128,126,128,0
7137,129,129,128,128,126,127,125,128,0
7140,127,127,128,127,128,127,126,127,0
7145,129,126,129,127,123,127,127,127,0
7149,128,128,128,128,126,127,127,127,0
7153,128,128,127,128,129,127,127,129,0
7156,126,127,126,127,126,128,131,129,0
7159,128,127,130,130,134,127,131,129,0
7163,129,128,128,130,133,129,131,127,0
7166,128,129,126,126,125,129,127,128,0
7170,129,127,130,125,125,124,124,125,0
7173,128,125,130,128,123,126,123,127,0
7176,130,126,128,126,125,127,125,127,0
7180,128,128,129,127,128,126,126,126,0
7183,126,127,126,129,125,128,125,126,0
7186,129,127,128,126,125,129,127,128,0
7190,126,127,128,129,131,126,132,128,0
7194,129,129,125,127,126,128,125,127,0
7197,129,128,129,127,129,123,128,129,0
7201,124,128,129,131,136,128,132,129,0
7205,128,128,129,130,134,128,125,127,0
7208,129,129,127,128,127,129,126,127,0
7213,128,128,127,128,130,128,127,128,0
7216,127,127,127,125,123,126,125,127,0
7219,128,128,130,125,125,125,126,126,0
7223,128,129,130,128,128,128,127,127,0
7227,127,128,126,127,127,130,128,126,0
7230,125,127,128,128,129,128,133,128,0
7233,128,127,130,130,135,128,130,127,0
7237,126,129,125,126,126,129,127,129,0
7239,129,129,127,126,125,127,125,127,0
7242,126,126,129,128,127,130,127,126,0
7245,128,127,127,127,122,125,127,129,0
7248,131,128,127,127,126,128,127,127,0
7253,129,128,128,128,126,125,125,126,0
7257,128,127,129,126,125,127,125,127,0
7260,127,126,128,128,127,124,125,128,0
7265,128,128,126,127,126,129,127,127,0
7268,128,128,126,127,128,129,129,128,0
7272,125,127,129,130,130,128,132,128,0
7275,127,127,130,130,135,128,131,128,0
7278,126,128,125,126,130,131,132,129,0
7283,127,128,126,125,125,131,131,128,0
7286,128,127,128,126,124,127,126,125,0
7291,125,126,127,128,127,128,128,128,0
7294,125,128,125,127,126,127,129,128,0
7297,129,128,128,128,125,126,124,126,0
7300,128,127,129,130,130,127,130,128,0
7303,128,127,130,129,133,127,131,129,0
7306,125,129,127,127,124,128,127,129,0
7309,129,128,128,126,126,128,127,128,0
7312,128,127,127,127,124,129,125,125,0
7316,127,126,128,127,126,124,126,126,0
7319,124,128,125,126,131,128,128,129,0
7323,127,128,126,127,125,128,130,129,0
7326,129,127,128,127,124,128,126,127,0
7329,127,126,128,126,125,127,126,126,0
7332,124,128,127,126,130,128,129,128,0
7340,124,128,126,129,129,130,130,126,0
7343,128,128,127,127,127,127,128,127,0
7346,121,126,129,130,134,128,132,129,0
7350,128,128,128,130,135,126,129,129,0
7353,129,128,126,127,126,129,127,128,0
7356,130,127,127,125,128,128,130,127,0
7359,127,127,129,127,124,123,126,128,0
7363,131,128,125,127,125,127,128,129,0
7371,130,129,127,127,126,128,127,128,0
7375,130,128,130,127,125,126,125,128,0
7378,129,127,129,128,131,128,134,129,0
7382,128,128,129,131,134,129,127,126,0
7390,129,129,127,126,128,128,127,127,0
7393,127,128,126,128,128,131,129,127,0
7397,128,125,127,127,124,127,130,125,0
7400,128,127,127,128,126,126,124,127,0
7404,125,129,126,127,128,129,130,128,0
7407,128,128,127,127,125,127,129,128,0
7410,123,126,128,128,127,127,126,128,0
7414,124,126,126,126,128,129,129,128,0
7417,128,129,126,128,128,128,127,127,0
7420,128,128,129,128,127,126,125,126,0
7424,127,127,128,128,124,125,133,130,0
7427,130,129,130,130,134,128,129,129,0
7430,128,128,127,129,127,129,127,128,0
7432,128,127,126,127,128,128,127,127,0
7435,126,126,128,128,128,125,127,127,0
7438,127,127,127,129,126,131,130,129,0
7441,129,129,126,125,127,129,128,128,0
7445,130,129,130,127,125,129,124,126,0
7448,126,126,127,126,122,125,124,126,0
7451,128,127,127,125,130,124,124,126,0
7454,126,128,125,128,130,128,128,129,0
7457,127,127,125,127,129,129,127,127,0
7460,124,127,128,128,132,128,132,129,0
7464,128,127,129,129,134,128,129,128,0
7467,124,129,128,125,126,129,129,128,0
7472,129,128,125,126,130,130,130,128,0
7475,128,127,127,126,123,124,126,128,0
7479,127,127,128,127,124,127,124,127,0
7485,131,129,128,126,126,128,124,128,0
7488,129,128,128,126,129,128,128,128,0
7490,123,127,127,126,126,127,127,124,0
7493,123,127,129,127,124,127,124,127,0
7496,127,128,127,128,126,127,129,129,0
7499,130,128,127,128,126,126,127,128,0
7501,129,127,128,128,126,127,127,126,0
7508,127,128,128,128,128,130,128,128,0
7505,128,126,129,130,135,129,133,129,0
7511,128,128,125,127,125,128,127,129,0
7515,129,127,128,128,126,129,126,128,0
7518,126,127,128,125,124,124,127,128,0
7521,128,128,128,130,132,127,131,130,0
7524,129,129,127,128,126,126,126,127,0
7527,129,126,128,126,125,128,124,125,0
7530,121,127,128,127,124,128,129,126,0
7534,127,128,127,127,126,128,127,130,0
7537,129,129,129,129,129,127,125,127,0
7540,125,127,128,128,125,126,124,125,0
7544,127,127,129,130,135,128,131,129,0
7546,128,128,129,131,132,125,127,129,0
7549,130,128,126,127,124,129,126,128,0
7552,129,128,127,128,127,129,127,128,0
7555,126,126,128,131,135,128,131,128,0
7558,129,128,126,125,124,129,127,128,0
7562,129,129,126,128,128,129,126,128,0
7565,129,127,126,126,123,126,126,127,0
7568,128,126,130,128,127,125,127,128,0
7572,126,127,130,126,125,128,126,127,0
7577,127,128,125,129,130,129,127,127,0
7582,126,127,126,128,130,129,127,126,0
7585,123,126,128,128,125,128,129,126,0
7588,126,128,126,128,125,128,125,128,0
7592,126,129,126,127,130,129,129,128,0
7594,125,129,126,128,126,128,128,127,0
7597,123,127,127,126,125,127,126,125,0
7600,126,127,127,129,132,126,131,128,0
7603,123,129,126,128,128,128,126,128,0
7606,127,128,126,130,130,126,127,128,0
7609,128,127,129,130,132,128,132,128,0
7612,128,127,130,129,133,127,126,128,0
7615,128,128,129,127,125,130,127,128,0
7618,130,128,129,128,127,128,127,127,0
7620,125,126,127,128,128,124,127,126,0
7624,126,127,128,125,123,127,126,128,0
7627,129,129,127,127,126,128,127,128,0
7631,129,128,127,126,128,129,127,127,0
7634,125,126,126,125,127,127,129,127,0
7638,124,127,128,130,130,124,127,129,0
7640,129,129,128,128,127,129,125,127,0
7645,128,128,127,129,128,127,125,126,0
7648,127,126,128,126,126,128,125,125,0
7651,128,127,127,126,127,127,125,127,0
7654,126,129,127,127,130,129,128,129,0
7658,126,128,125,127,125,126,127,128,0
7660,128,126,128,126,130,128,133,129,0
7664,127,127,129,130,136,129,130,129,0
7667,129,128,126,126,126,130,127,127,0
7670,128,128,126,128,129,129,128,127,0
7674,126,126,126,125,126,127,126,126,0
7678,126,126,126,127,125,129,130,128,0
7683,128,128,126,127,124,128,127,129,0
7690,129,128,127,128,127,127,125,127,0
7695,125,127,129,129,125,123,124,125,0
7698,127,127,128,130,136,129,129,129,0
7702,128,128,127,128,124,129,127,127,0
7705,128,128,129,128,127,129,126,128,0
7708,130,127,126,127,122,125,125,126,0
7712,130,127,128,126,125,128,127,128,0
7715,128,128,127,127,129,128,128,128,0
7718,127,128,125,127,128,130,129,128,0
7722,128,127,128,127,125,125,125,126,0
7725,127,126,129,129,136,127,130,129,0
7728,127,128,128,130,130,127,125,128,0
7731,128,128,127,129,131,128,126,127,0
7734,128,127,127,126,126,127,127,127,0
7737,124,126,128,125,124,127,126,127,0
7740,128,128,127,127,124,126,128,129,0
7743,128,129,126,127,125,128,128,128,0
7746,129,127,127,127,124,125,124,125,0
7750,127,127,130,130,132,128,133,129,0
7754,128,128,128,130,130,124,125,127,0
7756,129,129,128,128,127,127,125,126,0
7759,127,128,129,128,127,128,126,126,0
7762,126,128,128,129,130,126,128,127,0
7765,127,127,127,127,129,130,129,128,0
7768,128,128,126,125,127,129,131,130,0
7771,129,128,128,127,123,127,124,126,0
7774,130,127,128,128,126,123,124,126,0
7786,127,127,126,127,125,127,131,129,0
7792,129,129,126,127,126,128,129,128,0
7799,129,128,127,127,127,128,128,128,0
7803,123,127,129,130,134,126,129,129,0
7806,128,127,128,131,135,128,126,127,0
7809,128,128,128,128,128,129,127,127,0
7812,128,128,125,126,126,129,127,128,0
7815,123,127,128,126,122,126,124,126,0
7818,127,128,128,128,125,129,126,128,0
7821,128,129,126,126,129,129,129,129,0
7825,129,127,129,128,126,125,127,128,0
7829,129,126,127,128,126,125,125,126,0
7832,125,127,128,126,128,129,128,129,0
7835,125,129,127,127,129,128,127,128,0
7838,128,128,128,128,127,127,125,126,0
7840,128,126,128,127,126,125,129,130,0
7861,129,128,129,130,136,128,131,129,0
7867,129,128,126,126,125,128,127,129,0
7871,129,128,129,126,125,126,124,127,0
7874,125,127,128,127,124,126,126,127,0
7877,128,127,128,129,134,128,128,128,0
7881,122,129,126,125,129,130,131,129,0
7884,128,128,126,125,129,129,128,128,0
7888,126,127,127,128,129,125,127,128,0
7891,129,128,129,131,133,129,129,127,0
7894,128,129,126,125,126,128,126,128,0
7898,129,128,125,128,128,131,127,126,0
7901,125,127,127,125,124,127,124,127,0
7905,128,127,130,128,126,126,126,127,0
7908,127,128,125,127,127,129,130,130,0
7914,129,129,126,129,127,128,127,129,0
7920,128,128,128,127,124,123,127,127,0
7925,125,127,132,130,134,128,130,128,0
7928,125,129,127,126,126,129,127,128,0
7931,129,128,127,127,128,129,128,128,0
7934,128,127,127,127,124,125,125,127,0
7937,126,126,126,127,125,126,126,127,0
7939,128,128,128,128,128,127,127,127,0
7942,126,128,126,127,132,128,126,126,0
7945,127,127,129,127,124,124,125,127,0
7948,127,128,129,130,136,127,132,129,0
7950,127,128,128,129,127,129,127,128,0
7954,128,127,125,127,127,130,131,129,0
7959,129,127,128,127,122,125,126,128,0
7962,129,125,128,125,124,128,127,128,0
7965,129,128,128,128,127,127,125,128,0
7968,128,128,129,129,128,126,126,127,0
7971,124,127,127,127,127,126,125,125,0
7974,127,127,128,127,124,128,127,127,0
7976,127,128,126,127,129,129,128,129,0
7979,128,128,126,129,128,128,127,127,0
7991,128,128,127,128,126,123,129,129,0
7995,127,127,131,130,132,129,131,129,0
8000,127,128,129,130,130,124,127,128,0
8010,130,129,127,125,130,133,132,128,0
8015,128,128,125,126,123,125,123,126,0
8019,128,127,130,127,125,128,126,127,0
8022,128,127,127,126,126,129,128,129,0
8026,130,129,127,128,125,128,128,128,0
8030,129,128,128,128,125,124,125,126,0
8037,130,127,129,131,134,128,129,128,0
8041,128,128,128,129,124,128,126,128,0
8044,129,128,126,126,128,129,125,127,0
8047,127,128,129,129,128,127,126,127,0
8051,128,126,127,127,122,126,126,127,0
8054,129,127,128,129,133,126,127,127,0
8057,128,129,125,127,128,130,131,129,0
8061,129,128,125,127,126,127,127,128,0
8064,123,127,128,129,127,124,128,129,0
8067,129,128,129,130,135,129,129,128,0
8069,127,128,125,126,131,130,129,128,0
8072,129,128,127,127,125,127,124,126,0
8075,130,126,128,125,125,126,124,125,0
8078,127,126,128,125,125,129,128,129,0
8082,129,129,126,128,127,129,128,129,0
8086,127,128,125,127,127,128,128,128,0
8089,129,127,128,127,128,126,130,129,0
8097,128,128,129,130,134,127,129,129,0
8101,122,128,129,126,125,129,126,128,0
8104,129,128,129,126,127,128,128,129,0
8108,129,124,127,127,126,127,127,126,0
8112,127,126,129,126,128,124,126,128,0
8115,129,128,128,128,128,127,127,127,0
8119,127,127,125,126,127,128,131,126,0
8122,128,126,127,126,123,125,125,126,0
8132,125,126,128,127,127,127,130,126,0
8136,128,128,127,128,129,129,130,129,0
8139,129,129,126,127,128,129,129,128,0
8142,128,127,129,130,135,126,133,129,0
8144,128,127,128,130,134,128,128,128,0
8149,129,128,126,125,127,129,130,129,0
8153,130,128,127,125,125,126,125,126,0
8159,126,127,129,127,123,128,131,124,0
8162,130,127,129,127,129,126,128,127,0
8165,124,128,126,126,126,129,127,128,0
8168,128,128,126,129,131,128,127,127,0
8171,124,127,129,128,127,125,126,123,0
8176,125,126,128,129,132,127,131,129,0
8182,128,129,127,127,125,129,128,129,0
8186,129,129,128,128,124,128,125,127,0
8189,130,128,129,126,125,128,127,126,0
8192,124,127,128,126,123,128,124,127,0
8195,130,129,128,126,129,129,129,129,0
8198,125,129,125,128,128,128,128,129,0
8210,128,128,129,128,125,125,128,129,0
8214,127,127,130,131,133,128,133,128,0
8218,127,127,128,128,127,129,126,127,0
8221,127,129,126,129,129,130,132,128,0
8224,125,127,126,127,123,127,128,128,0
8227,127,127,128,125,124,128,129,125,0
8230,130,127,127,127,125,127,126,128,0
8233,127,128,125,128,129,130,130,128,0
8245,124,128,128,126,125,127,124,127,0
8249,123,127,128,130,132,128,132,128,0
8252,127,128,128,130,129,129,130,128,0
8256,129,128,126,128,127,129,128,128,0
8259,130,128,126,128,125,127,129,128,0
8263,124,126,127,127,124,126,124,125,0
8266,127,127,129,128,126,128,125,127,0
8270,126,128,126,128,131,129,132,128,0
8275,128,126,126,129,127,128,127,127,0
8280,124,126,129,126,127,125,131,129,0
8324,128,127,128,130,134,128,127,128,0
8333,130,128,125,127,125,129,129,129,0
8352,130,128,127,127,123,126,123,126,0
8392,127,127,129,128,123,127,125,127,0
8401,127,127,126,127,125,127,126,127,0
8409,128,129,129,129,129,127,126,129,0
8417,127,127,127,128,127,127,125,125,0
8422,128,126,130,130,133,126,132,128,0
8458,128,127,129,130,135,128,131,129,0
8466,127,128,124,126,126,129,130,129,0
8475,130,128,127,127,123,128,124,126,0
8526,130,128,129,126,124,128,125,126,0
8536,123,128,128,125,126,129,127,128,0
8544,126,129,126,127,130,129,129,129,0
8551,126,128,127,128,125,125,125,128,0
8557,126,128,127,126,125,127,126,126,0
8593,127,127,130,130,133,127,129,129,0
8603,125,129,127,127,126,129,128,129,0
8611,129,129,127,127,124,126,126,127,0
8663,130,126,128,128,128,125,125,125,0
8672,127,127,128,128,128,128,129,130,0
8687,129,129,127,128,127,128,126,128,0
8698,127,128,127,127,129,128,128,128,0
8705,125,128,127,128,123,126,127,128,0
8710,127,127,129,130,135,128,130,128,0
8715,126,128,126,127,124,129,126,129,0
8720,128,128,126,126,125,128,127,129,0
8723,128,126,127,126,123,127,127,126,0
8727,127,126,127,128,131,128,130,129,0
8730,128,126,128,126,131,131,129,128,0
8734,127,128,127,128,129,130,130,128,0
8737,126,126,127,126,127,123,124,126,0
8741,127,127,128,128,125,127,127,128,0
8747,129,128,127,127,125,127,127,128,0
8751,129,128,128,128,126,128,126,127,0
8754,125,127,128,127,127,128,128,124,0
8757,128,126,130,131,133,129,133,129,0
8761,127,128,128,130,131,127,126,128,0
8764,129,128,125,127,126,129,128,129,0
8767,130,128,129,127,124,125,125,128,0
8771,130,126,128,129,134,129,132,129,0
8774,128,128,127,127,125,127,127,128,0
8777,132,129,127,127,124,129,125,127,0
8780,129,128,130,128,126,128,126,128,0
8784,128,127,128,125,123,128,125,126,0
8787,128,128,127,129,129,129,129,128,0
8791,127,128,126,128,128,128,128,128,0
8795,128,128,126,128,125,125,127,127,0
8798,128,127,129,129,137,128,131,129,0
8803,127,128,129,130,129,129,128,128,0
8806,129,129,125,128,131,129,127,128,0
8809,129,128,127,127,124,127,125,125,0
8811,125,126,130,128,125,128,125,127,0
8816,125,127,126,126,127,129,129,129,0
8821,129,128,125,128,127,129,129,128,0
8826,128,128,126,127,128,128,127,125,0
8829,126,126,128,128,130,127,133,128,0
8832,128,128,128,130,132,127,126,128,0
8835,127,128,129,127,128,130,128,129,0
8837,130,128,128,126,124,128,126,128,0
8840,131,127,129,126,123,126,127,125,0
8843,122,128,126,125,127,129,127,127,0
8846,129,129,126,128,128,128,128,129,0
8849,124,128,126,127,128,127,127,127,0
8851,126,126,127,128,125,125,125,126,0
8854,128,127,129,127,125,125,126,127,0
8857,128,129,128,129,127,128,127,128,0
8862,129,128,126,128,129,127,126,127,0
8867,123,128,129,131,134,127,130,129,0
8873,128,128,130,129,135,128,132,129,0
8879,128,128,127,128,131,130,129,128,0
8883,126,128,125,127,125,128,127,129,0
8933,121,126,128,127,125,123,125,126,0
8945,125,128,130,129,134,129,131,129,0
8953,128,128,125,127,130,130,128,129,0
8961,128,127,126,126,127,130,130,128,0
8966,129,128,128,125,124,129,130,126,0
8972,129,125,129,125,125,128,126,127,0
8977,125,128,126,126,132,128,129,129,0
8988,127,128,126,127,124,126,125,127,0
8992,127,127,127,127,125,126,126,127,0
9002,129,129,127,129,129,126,126,127,0
8997,128,127,128,128,125,126,125,128,0
9006,128,128,127,128,127,128,124,126,0
9013,128,128,127,126,126,126,126,127,0
9017,129,127,129,131,135,128,130,129,0
9021,129,129,126,128,127,129,127,128,0
9025,128,128,128,128,129,128,128,128,0
9028,125,125,126,128,126,130,125,127,0
9031,131,127,127,127,126,130,127,128,0
9035,126,129,126,127,125,127,128,129,0
9038,129,128,128,128,126,125,124,126,0
9041,129,127,128,129,126,128,124,125,0
9045,126,127,129,126,126,127,126,127,0
9048,125,128,126,127,130,130,127,128,0
9051,128,128,127,129,129,129,127,127,0
9054,128,127,127,127,127,129,131,129,0
9057,129,127,130,129,135,128,130,128,0
9060,127,128,129,130,125,129,126,128,0
9065,132,129,130,128,130,129,129,126,0
9068,126,127,127,128,125,129,127,128,0
9072,127,127,131,130,132,129,130,129,0
9075,128,128,126,125,129,128,129,129,0
9078,129,128,125,125,126,128,126,129,0
9080,129,128,127,127,122,126,124,126,0
9084,128,127,129,127,125,125,123,127,0
9087,130,129,126,127,128,130,130,129,0
9090,127,128,125,126,128,128,128,128,0
9095,126,128,126,127,130,127,127,127,0
9099,128,126,128,126,125,123,128,128,0
9103,128,128,128,130,135,126,128,128,0
9107,128,129,127,126,127,129,128,128,0
9110,128,128,126,128,129,128,128,129,0
9115,124,126,127,126,124,127,125,127,0
9119,128,127,127,126,129,129,130,129,0
9124,128,129,126,127,126,127,124,127,0
9127,126,127,129,128,126,126,126,125,0
9130,128,126,127,127,123,128,131,129,0
9132,129,128,130,130,134,128,129,126,0
9135,128,129,125,127,128,129,127,127,0
9138,128,128,127,126,125,128,130,126,0
9141,128,127,127,127,124,128,128,125,0
9144,128,127,126,127,127,128,128,129,0
9148,129,129,128,128,129,129,129,128,0
9151,125,128,126,128,126,127,128,125,0
9155,129,127,129,131,133,127,130,128,0
9158,128,127,128,130,133,128,129,129,0
9161,125,129,126,126,131,132,129,129,0
9165,128,128,126,127,124,127,124,126,0
9168,127,125,128,128,126,124,124,126,0
9172,127,127,126,128,126,129,127,127,0
9175,128,129,124,127,130,129,132,130,0
9178,126,127,126,127,125,126,126,129,0
9182,129,127,128,130,135,127,131,129,0
9200,128,127,128,130,134,128,129,129,0
9205,126,129,125,128,130,131,131,129,0
9208,130,128,126,126,125,128,129,128,0
9212,129,127,127,126,124,128,125,126,0
9215,125,127,128,127,126,129,127,127,0
9228,128,128,125,127,131,128,129,129,0
9232,127,128,126,127,124,126,126,128,0
9235,128,127,127,127,123,124,125,126,0
9238,127,127,129,127,124,125,125,127,0
9246,124,129,125,127,127,127,127,128,0
9249,129,128,128,127,128,129,129,127,0
9253,128,126,128,128,126,127,127,127,0
9256,123,127,128,130,134,129,132,128,0
9259,127,128,129,130,134,126,129,129,0
9262,127,129,125,127,126,128,128,127,0
9266,130,127,130,126,126,127,129,128,0
9269,127,127,129,130,136,129,130,128,0
9272,127,128,126,127,124,127,130,129,0
9276,130,129,128,126,125,129,125,127,0
9286,128,127,129,127,126,126,125,126,0
9290,127,127,129,127,126,128,127,128,0
9293,130,127,130,127,127,128,125,127,0
9297,127,128,126,127,129,129,128,126,0
9300,128,127,126,127,126,128,126,127,0
9304,129,126,129,126,124,125,126,128,0
9308,125,128,127,127,126,126,126,128,0
9311,129,128,128,128,128,128,129,130,0
9315,122,127,127,128,127,128,128,128,0
9318,127,127,129,130,134,128,131,129,0
9322,128,128,128,131,135,126,129,128,0
9325,128,127,125,125,125,130,128,128,0
9329,129,128,129,127,126,124,124,127,0
9332,126,127,130,130,133,128,130,128,0
9335,126,125,125,127,127,129,128,128,0
9339,130,128,128,128,128,128,125,127,0
9342,128,128,129,126,125,127,126,129,0
9346,129,126,128,125,123,126,124,126,0
9349,130,128,129,129,128,129,128,128,0
9352,128,128,124,127,127,129,129,129,0
9355,129,127,128,128,125,124,123,126,0
9360,126,127,129,128,131,128,133,129,0
9364,127,128,128,130,125,129,128,129,0
9369,129,128,127,126,126,129,127,128,0
9375,129,129,129,128,125,125,124,124,0
9378,126,127,130,126,125,128,126,125,0
9382,127,127,126,126,129,129,130,127,0
9385,127,128,125,128,129,130,129,129,0
9388,126,129,127,127,126,128,128,128,0
9390,128,127,129,130,135,128,130,128,0
9394,127,128,129,130,133,127,125,127,0
9396,128,129,127,127,126,128,125,127,0
9399,129,128,127,128,127,128,129,125,0
9402,127,127,128,126,123,125,128,129,0
9405,128,126,128,131,134,129,129,127,0
9408,126,128,125,127,127,130,129,128,0
9412,129,128,127,127,123,126,126,129,0
9415,128,127,128,126,122,126,125,126,0
9418,122,127,129,128,126,128,127,127,0
9421,125,129,125,127,127,129,129,128,0
9425,129,128,128,127,129,127,125,127,0
9429,128,127,128,127,125,128,124,125,0
9432,125,127,127,127,125,127,128,128,0
9435,126,128,126,128,127,128,126,127,0
9438,127,128,128,127,126,128,126,128,0
9441,128,128,128,127,125,128,128,129,0
9445,129,127,129,130,135,128,129,130,0
9449,128,126,127,126,126,129,128,128,0
9452,129,128,125,127,126,129,128,128,0
9455,128,127,130,128,125,127,127,127,0
9458,127,127,127,127,126,127,126,128,0
9462,129,129,126,128,129,129,128,128,0
9465,129,128,126,128,129,128,129,129,0
9469,122,127,128,126,132,125,128,128,0
9473,127,127,129,129,136,128,130,129,0
9480,126,128,125,126,126,129,131,129,0
9484,129,128,126,128,125,128,128,127,0
9487,129,127,128,125,124,126,127,124,0
9491,122,125,129,125,126,125,126,126,0
9494,129,128,126,127,126,129,128,128,0
9497,128,129,128,129,125,125,126,127,0
9500,128,127,128,126,125,127,125,126,0
9502,126,127,129,130,139,127,131,129,0
9506,128,129,127,127,127,129,131,129,0
9508,129,128,126,126,127,129,127,127,0
9512,128,128,129,128,126,128,125,126,0
9515,125,126,128,127,124,128,125,127,0
9521,126,128,126,126,127,128,129,129,0
9524,129,129,126,127,126,128,127,128,0
9529,129,127,129,128,125,126,125,126,0
9532,125,126,130,131,132,128,131,128,0
9537,127,128,129,130,128,129,128,128,0
9540,128,128,126,126,127,129,126,129,0
9543,128,126,128,126,125,125,123,126,0
9546,126,127,129,126,126,128,127,127,0
9551,128,128,127,126,127,130,129,129,0
9554,128,129,128,129,128,128,128,127,0
9558,126,127,126,128,127,128,126,126,0
9561,128,126,127,129,136,127,133,129,0
9564,126,128,127,130,130,126,127,127,0
9567,129,128,127,125,127,129,126,127,0
9572,126,128,126,126,127,128,127,126,0
9575,124,126,128,126,124,124,124,127,0
9578,123,128,127,129,129,128,127,128,0
9581,128,129,126,128,128,130,128,129,0
9590,128,128,126,127,128,124,125,126,0
9595,127,127,130,131,133,128,132,129,0
9602,128,128,129,130,135,128,127,126,0
9606,129,128,127,128,126,128,126,127,0
9610,127,128,129,128,126,129,131,125,0
9613,128,127,128,126,127,121,128,127,0
9617,127,127,129,129,134,125,129,128,0
9620,129,128,125,127,125,130,132,129,0
9624,129,127,126,127,124,128,128,128,0
9627,130,127,128,126,123,127,126,127,0
9630,131,126,128,125,126,130,131,130,0
9633,128,129,127,127,124,129,127,129,0
9637,128,128,129,127,125,126,124,126,0
9639,127,127,128,126,128,125,125,125,0
9642,128,126,127,127,125,126,126,128,0
9645,129,128,127,128,127,129,126,129,0
9648,129,128,127,128,128,128,128,128,0
9651,129,126,128,131,135,129,132,129,0
9654,128,127,128,130,136,129,131,129,0
9657,129,128,125,125,131,129,128,128,0
9659,128,128,126,127,125,128,131,128,0
9662,127,126,127,125,121,124,125,126,0
9665,127,127,128,126,125,126,124,126,0
9668,125,129,126,128,128,130,129,129,0
9671,129,128,126,128,126,127,125,126,0
9676,128,127,127,126,126,127,128,127,0
9679,126,127,129,130,136,128,131,129,0
9681,127,127,125,125,125,129,131,129,0
9685,128,128,127,127,124,126,126,128,0
9688,130,126,128,128,124,127,124,126,0
9692,125,127,128,129,130,125,126,128,0
9697,129,128,127,127,127,129,128,129,0
9701,129,129,128,128,125,127,126,127,0
9707,126,127,127,128,126,129,128,125,0
9711,130,127,129,126,127,125,131,128,0
9717,127,128,128,130,126,127,128,129,0
9720,129,129,128,126,126,129,125,127,0
9724,127,127,127,126,126,129,127,128,0
9727,128,127,128,127,123,127,126,128,0
9730,127,129,128,128,126,129,126,128,0
9733,126,128,125,128,129,128,129,129,0
9736,128,127,127,127,127,127,128,127,0
9739,122,126,128,126,125,128,127,128,0
9742,122,127,126,127,126,128,128,129,0
9745,130,128,127,127,128,128,126,127,0
9749,129,127,129,128,130,125,130,129,0
9752,128,127,131,130,133,128,133,128,0
9755,128,128,129,130,133,129,128,127,0
9758,128,129,126,128,129,129,130,129,0
9761,129,127,125,126,124,126,124,126,0
9763,129,127,129,129,129,126,128,129,0
9766,127,128,127,125,123,129,130,129,0
9769,129,128,127,126,127,127,126,129,0
9772,130,128,127,127,122,126,124,126,0
9775,129,125,130,125,124,125,126,127,0
9777,128,127,126,126,126,129,129,127,0
9780,126,128,124,128,128,129,129,129,0
9783,127,128,126,127,131,125,125,125,0
9785,127,125,129,130,134,128,132,128,0
9788,126,128,129,130,133,125,130,129,0
9792,129,128,129,128,127,128,127,128,0
9796,129,127,127,127,125,128,128,128,0
9801,127,127,129,129,130,126,130,129,0
9806,128,128,129,129,127,129,127,128,0
9809,128,128,125,127,126,129,128,129,0
9813,130,128,126,126,125,128,125,127,0
9816,130,125,129,125,122,125,124,125,0
9820,124,127,127,128,127,128,128,128,0
9823,128,128,126,127,128,129,130,129,0
9826,127,128,126,128,125,126,124,126,0
9829,126,127,128,127,127,122,129,128,0
9833,126,127,129,131,133,127,129,127,0
9836,126,128,126,127,129,130,128,128,0
9839,128,127,126,127,126,128,128,128,0
9842,132,127,128,127,122,127,125,125,0
9845,126,126,128,128,124,126,124,127,0
9849,129,128,128,128,126,127,125,127,0
9852,128,128,127,128,125,127,126,127,0
9856,125,128,127,128,125,128,124,127,0
9859,128,127,129,130,135,128,131,129,0
9866,128,128,128,129,126,128,125,129,0
9869,130,128,127,127,124,127,125,126,0
9872,129,127,130,128,125,128,128,127,0
9875,127,128,129,129,132,128,130,129,0
9880,129,128,125,128,130,129,127,128,0
9884,128,128,126,125,130,129,129,127,0
9891,125,127,126,125,126,128,126,128,0
9896,130,127,128,126,123,125,125,125,0
9901,126,128,126,126,129,130,129,129,0
9907,127,129,125,127,126,128,128,127,0
9911,127,126,127,126,128,126,126,126,0
9914,126,126,129,129,135,127,131,129,0
9919,127,127,127,127,125,129,127,128,0
9926,128,128,127,128,125,128,125,126,0
9931,126,127,130,125,126,128,126,125,0
9934,130,127,129,125,124,126,123,126,0
9937,127,128,125,127,130,129,130,128,0
9941,127,128,125,128,129,129,130,129,0
9944,125,127,126,126,127,128,128,125,0
9948,125,127,129,126,126,123,127,128,0
9951,130,128,127,128,127,130,128,129,0
9954,129,128,126,127,128,129,130,127,0
9958,126,127,127,128,127,128,127,127,0
9961,123,127,129,131,140,130,138,129,0
9966,127,128,129,131,133,128,130,126,0
9969,132,128,127,127,126,128,126,126,0
9973,128,127,128,128,127,128,125,126,0
9976,127,126,128,125,126,128,127,128,0
9979,130,128,129,128,127,128,127,128,0
9983,124,129,127,127,129,130,128,128,0
9986,129,127,126,127,125,128,126,127,0
9989,124,127,128,126,125,127,127,124,0
9992,126,127,129,130,134,128,129,130,0
9996,126,127,125,127,127,131,131,129,0
9999,129,127,127,127,123,125,124,125,0
10003,128,126,128,127,123,126,125,127,0
10006,124,126,128,126,127,128,126,127,0
10010,128,128,125,128,128,129,130,129,0
10013,128,128,128,127,124,126,128,128,0
10016,127,126,129,131,135,128,132,129,0
10019,128,128,129,130,134,128,129,127,0
10023,127,129,126,126,125,127,128,128,0
10028,131,128,128,126,125,127,125,126,0
10033,128,126,129,128,125,124,124,125,0
10037,130,126,130,129,127,129,128,129,0
10041,130,129,130,128,127,126,126,127,0
10045,127,128,128,127,128,127,128,125,0
10049,128,127,130,126,126,125,126,128,0
10052,127,128,129,130,132,126,127,130,0
10055,129,129,126,127,126,128,127,128,0
10058,129,128,128,128,125,125,125,127,0
10061,127,126,129,128,124,128,125,126,0
10064,125,128,129,129,134,129,131,128,0
10069,123,130,129,128,125,129,126,127,0
10073,129,128,127,128,130,129,128,128,0
10080,125,126,127,125,125,128,127,127,0
10083,124,127,126,126,125,127,131,130,0
10088,127,129,126,128,126,127,125,128,0
10091,126,128,126,127,128,129,128,125,0
10094,126,126,129,130,131,127,129,128,0
10097,129,128,129,130,134,129,127,128,0
10101,128,128,126,125,127,131,130,129,0
10104,129,128,126,127,127,128,128,127,0
10108,128,127,129,128,126,127,125,126,0
10111,125,127,129,130,130,125,129,127,0
10114,124,128,125,125,131,129,128,129,0
10118,129,128,127,126,126,128,126,127,0
10121,129,128,130,128,127,125,126,125,0
10128,124,127,127,126,126,128,127,127,0
10130,128,128,125,127,128,129,130,129,0
10134,129,128,127,127,126,128,125,126,0
10138,127,127,131,128,125,123,126,128,0
10141,127,127,129,129,135,128,133,129,0
10186,127,127,127,127,124,128,126,127,0
10203,129,128,127,129,128,129,129,128,0
10206,126,127,129,128,126,130,127,127,0
10210,123,126,127,127,123,125,125,127,0
10214,130,128,127,127,124,128,127,128,0
10216,127,128,129,129,130,129,129,128,0
10221,128,126,126,127,125,127,128,127,0
10224,123,127,129,128,125,126,125,126,0
10226,129,129,127,129,129,128,127,127,0
10229,124,129,126,128,129,129,128,128,0
10232,125,127,127,128,128,124,127,127,0
10236,122,127,130,129,135,129,133,129,0
10239,127,128,128,130,134,129,129,127,0
10242,132,129,127,126,125,129,126,127,0
10247,129,127,127,128,126,126,124,126,0
10250,130,127,129,127,126,124,125,127,0
10253,124,127,126,125,130,128,131,129,0
10256,127,128,125,127,127,128,128,129,0
10260,130,127,128,128,126,123,125,126,0
10262,127,127,130,131,137,128,131,129,0
10267,128,128,129,130,133,126,128,128,0
10270,128,128,128,128,131,129,130,128,0
10273,129,128,126,126,125,128,127,128,0
10278,131,126,129,127,127,126,131,128,0
10282,127,128,129,129,126,129,130,129,0
10286,129,129,128,127,124,129,127,129,0
10289,129,127,127,126,123,128,125,127,0
10292,127,126,130,125,123,124,123,125,0
10296,126,128,127,126,127,129,127,127,0
10299,126,128,125,127,130,130,131,128,0
10302,127,128,125,127,126,127,127,128,0
10306,129,126,126,128,128,123,129,128,0
10311,127,128,128,130,135,129,129,129,0
10315,123,128,127,126,127,128,126,127,0
10319,128,128,130,128,127,128,127,127,0
10323,126,127,127,128,124,128,127,127,0
10328,122,128,130,127,125,126,125,127,0
10333,128,129,126,128,128,129,130,129,0
10336,128,128,126,127,126,127,128,128,0
10339,127,126,127,129,132,127,132,128,0
10342,128,127,129,130,135,128,129,129,0
10346,127,128,126,128,128,130,128,129,0
10349,128,128,125,128,129,129,130,129,0
10352,127,127,127,127,126,128,127,126,0
10355,128,126,127,125,127,128,128,129,0
10359,128,128,126,128,126,128,127,128,0
10362,129,128,130,128,125,126,125,128,0
10365,124,127,128,126,125,128,131,128,0
10368,127,127,130,130,135,127,130,129,0
10372,128,127,128,128,127,130,129,128,0
10375,127,128,128,127,126,129,127,127,0
10377,127,127,127,126,124,127,128,126,0
10381,125,128,128,128,123,128,125,128,0
10385,130,129,129,128,126,129,125,128,0
10388,129,128,127,128,127,129,129,127,0
10391,128,127,127,128,126,128,126,127,0
10399,128,127,130,127,123,127,124,127,0
10403,127,129,125,127,125,127,128,129,0
10406,129,128,129,128,127,128,125,127,0
10410,129,127,129,128,127,128,127,127,0
10413,126,126,131,130,133,128,131,129,0
10417,127,128,128,130,134,128,126,127,0
10420,129,128,126,126,132,129,129,128,0
10425,129,127,126,126,127,125,124,125,0
10428,130,127,128,126,122,127,127,128,0
10438,127,128,126,127,129,128,129,129,0
10435,129,129,130,128,127,128,127,126,0
10441,128,127,127,127,124,126,128,128,0
10446,125,125,129,128,123,126,125,126,0
10449,126,128,128,128,127,127,128,127,0
10452,129,128,127,128,129,130,129,129,0
10455,123,127,128,128,128,126,129,129,0
10458,127,127,131,130,136,127,132,128,0
10462,127,128,129,130,135,128,127,129,0
10465,132,128,127,125,126,129,127,128,0
10468,129,128,128,128,129,128,125,126,0
10470,125,126,127,127,125,128,128,128,0
10474,124,128,126,127,124,126,127,130,0
10478,129,128,126,127,125,126,126,129,0
10481,129,128,128,127,124,126,129,126,0
10486,127,127,128,130,135,129,131,129,0
10490,127,127,129,129,124,129,130,128,0
10498,129,129,125,128,126,128,125,127,0
10503,129,128,129,125,125,125,125,127,0
10512,126,125,130,128,126,123,127,127,0
10518,127,127,127,128,128,131,131,129,0
10535,129,129,128,126,127,126,126,127,0
10549,128,128,126,129,129,130,129,127,0
10554,125,127,127,127,123,124,124,126,0
10563,127,127,129,126,128,131,125,126,0
10568,128,128,125,128,130,129,131,128,0
10575,127,128,126,127,125,125,126,127,0
10582,129,127,128,130,134,128,133,128,0
10588,126,127,128,130,133,128,128,126,0
10592,128,127,127,128,128,129,127,128,0
10597,128,128,126,127,129,129,128,129,0
10602,131,127,128,127,124,125,126,127,0
10607,127,127,127,129,128,123,126,128,0
10611,130,129,127,128,129,129,129,129,0
10618,129,128,127,127,124,126,125,126,0
10621,127,126,129,128,124,127,126,127,0
10624,128,127,127,127,125,127,128,129,0
10627,130,129,128,128,127,126,125,127,0
10632,127,128,128,127,127,123,124,128,0
10636,124,127,128,130,136,128,131,129,0
10639,129,128,129,130,134,128,128,127,0
10642,128,128,125,125,126,129,131,128,0
10645,128,128,125,125,124,128,126,127,0
10648,130,126,128,126,123,126,125,124,0
10651,127,127,130,128,126,126,126,125,0
10656,127,128,124,128,129,129,129,128,0
10660,127,128,125,127,125,127,128,128,0
10664,128,127,128,127,124,125,123,125,0
10669,126,127,129,131,134,128,131,128,0
10674,127,128,126,127,124,129,131,129,0
10677,129,128,126,127,124,127,125,126,0
10681,128,126,131,127,121,124,126,127,0
10685,130,125,128,127,124,127,126,126,0
10690,124,128,124,126,126,127,126,128,0
10694,128,129,128,127,128,127,127,126,0
10697,124,127,127,126,126,128,125,125,0
10701,127,127,128,128,126,128,127,128,0
10704,127,128,126,127,126,128,127,129,0
10707,129,128,126,128,126,128,128,128,0
10710,129,127,128,127,126,128,127,128,0
10713,127,127,130,130,134,128,130,129,0
10717,129,128,128,130,132,126,132,130,0
10720,130,128,127,127,125,129,128,128,0
10725,129,128,131,128,126,126,124,126,0
10729,127,127,127,128,130,127,131,129,0
10733,128,128,126,125,126,131,131,129,0
10735,128,128,125,126,128,129,128,128,0
10739,130,128,127,128,129,127,127,125,0
10742,125,126,129,126,124,126,126,127,0
10747,126,127,125,127,124,126,126,127,0
10750,129,128,127,128,126,127,125,127,0
10753,128,127,130,127,127,128,127,125,0
10757,127,127,129,130,134,128,131,129,0
10760,128,128,128,130,128,131,131,129,0
10764,129,129,125,126,126,128,128,128,0
10767,132,128,128,126,124,128,124,125,0
10771,127,125,131,125,123,126,126,127,0
10774,129,127,128,126,127,129,127,129,0
10779,128,129,127,128,126,127,125,127,0
10784,128,128,127,127,125,128,127,126,0
10789,126,127,128,126,126,125,125,127,0
10794,126,127,128,130,137,127,128,129,0
10798,127,127,127,128,131,128,126,127,0
10802,126,127,127,125,127,128,131,127,0
10808,129,126,127,125,126,128,126,127,0
10811,124,128,128,130,135,128,130,127,0
10815,129,128,126,127,125,129,127,129,0
10820,129,127,128,126,125,126,123,126,0
10825,127,125,128,128,126,126,126,126,0
10828,126,127,129,130,135,128,129,126,0
10835,129,127,126,126,124,128,125,127,0
10832,129,128,126,128,132,130,129,129,0
10841,128,126,130,128,125,122,126,127,0
10846,129,127,127,127,123,124,125,127,0
10849,129,129,127,128,126,128,125,127,0
10852,128,127,126,127,127,129,128,128,0
10859,128,127,129,130,134,128,131,127,0
10855,128,127,128,130,135,127,131,128,0
10868,124,128,126,128,130,131,131,129,0
10873,129,128,129,127,124,128,124,126,0
10879,130,128,128,126,123,124,123,125,0
10885,129,128,127,126,125,128,126,128,0
10892,128,128,125,127,129,129,130,129,0
10896,127,129,126,127,125,128,127,128,0
10900,129,128,127,127,124,125,125,126,0
10904,126,127,128,129,132,127,131,129,0
10907,128,129,128,126,127,129,128,129,0
10911,129,128,128,128,126,127,125,126,0
10914,126,128,128,128,127,127,126,127,0
10918,128,127,129,126,124,127,125,126,0
10922,124,129,127,127,131,129,127,127,0
10929,125,128,127,128,128,130,128,128,0
10933,128,127,128,127,127,128,127,127,0
10937,129,126,128,126,132,127,133,129,0
10946,129,128,128,127,126,127,125,127,0
10942,128,128,128,131,136,127,126,128,0
10950,129,126,128,128,126,129,130,127,0
10953,127,126,129,128,134,128,132,128,0
10958,123,128,128,128,127,130,127,128,0
10964,128,129,129,128,131,128,126,127,0
10968,128,127,126,125,125,127,127,128,0
10971,130,127,129,129,129,126,128,127,0
10976,126,128,126,127,124,128,127,129,0
10982,131,129,130,128,129,129,127,128,0
10989,129,128,127,127,126,127,128,127,0
10992,129,126,130,127,125,128,128,127,0
10996,128,127,126,127,125,126,126,127,0
11000,129,128,127,128,127,126,126,126,0
11005,128,128,128,127,127,123,125,126,0
11008,125,127,128,127,124,127,127,128,0
11012,129,127,127,128,125,128,129,128,0
11016,128,128,125,127,129,130,130,129,0
11019,127,127,127,128,128,126,128,126,0
11023,125,127,130,130,136,127,130,129,0
11027,128,128,128,130,134,128,131,129,0
11030,125,128,126,125,126,130,127,127,0
11034,132,128,130,128,126,125,125,125,0
11042,128,126,128,127,124,125,124,127,0
11052,130,128,127,128,129,127,127,128,0
11077,125,128,126,129,130,129,129,129,0
11086,127,127,126,126,129,125,126,126,0
11091,128,128,130,130,135,127,131,128,0
11095,128,128,128,129,134,128,131,129,0
11099,122,127,127,126,126,129,128,129,0
11103,129,128,128,128,127,129,125,125,0
11107,128,127,128,125,123,125,125,125,0
11111,130,126,130,128,126,129,127,127,0
11116,127,129,125,126,128,129,129,129,0
11120,128,128,127,127,124,126,127,128,0
11130,126,127,128,130,136,129,130,129,0
11124,130,125,128,126,125,127,127,127,0
11137,127,128,125,127,126,128,127,129,0
11141,129,128,128,127,126,126,124,126,0
11147,129,127,128,129,130,128,132,128,0
11153,128,127,129,130,132,128,128,125,0
11157,132,127,128,125,127,128,127,128,0
11163,129,128,126,125,124,128,129,128,0
11171,129,127,128,128,129,123,125,127,0
11168,127,127,126,126,121,124,124,126,0
11175,131,129,128,128,127,128,125,127,0
11179,128,128,130,129,127,128,126,127,0
11183,126,127,127,128,125,128,126,126,0
11192,129,129,127,128,128,127,125,127,0
11186,130,128,128,125,125,124,124,128,0
11196,127,128,128,126,132,126,127,128,0
11200,123,126,127,128,126,129,130,129,0
11204,128,128,129,130,134,129,130,128,0
11208,128,128,129,126,128,130,127,128,0
11211,129,128,126,127,125,128,128,128,0
11215,130,127,128,126,123,126,125,127,0
11218,130,126,127,126,126,126,130,125,0
11221,129,128,125,127,128,129,130,129,0
11224,127,128,126,128,125,127,128,128,0
11228,129,127,128,128,124,125,125,126,0
11231,125,127,131,131,135,128,131,129,0
11234,128,128,127,127,124,129,126,128,0
11238,130,128,127,128,127,129,125,127,0
11242,130,128,127,125,127,125,126,126,0
11246,125,127,129,129,126,127,130,129,0
11249,129,128,128,130,125,129,128,129,0
11252,130,129,126,127,125,129,128,128,0
11260,129,125,127,126,121,125,127,128,0
11256,128,128,126,125,123,126,126,128,0
11264,128,128,128,127,125,128,126,127,0
11269,128,128,126,126,127,129,127,128,0
11274,128,128,126,127,125,128,127,128,0
11278,127,126,128,126,125,128,127,127,0
11282,129,128,128,127,126,128,127,128,0
11286,128,128,126,127,125,125,128,128,0
11289,129,128,127,127,128,123,130,128,0
11293,127,127,129,129,135,128,131,128,0
11296,127,128,129,130,134,127,127,127,0
11299,129,129,126,128,129,132,131,127,0
11303,128,127,125,126,124,126,126,128,0
11306,131,125,131,125,126,128,126,128,0
11309,130,128,126,127,128,129,129,129,0
11313,127,129,126,127,126,127,126,127,0
11317,129,128,128,127,124,127,127,128,0
11320,125,126,128,128,125,127,127,125,0
11324,128,128,127,128,127,128,126,128,0
11328,129,129,128,127,129,127,127,127,0
11331,126,127,127,127,128,129,129,128,0
11335,128,128,129,129,132,128,132,128,0
11339,128,127,128,129,134,129,127,128,0
11343,127,127,127,128,130,129,127,127,0
11348,127,127,127,128,127,128,127,124,0
11352,128,125,130,128,122,126,126,126,0
11356,130,127,127,127,123,125,126,128,0
11361,131,129,127,127,128,129,126,127,0
11369,126,127,130,126,125,128,126,127,0
11366,127,128,128,126,127,125,125,125,0
11373,122,127,126,128,126,130,130,125,0
11376,129,129,128,128,129,127,126,127,0
11380,129,128,127,128,128,128,128,126,0
11383,123,127,130,130,135,127,133,128,0
11388,128,127,129,130,135,128,130,128,0
11392,126,129,127,127,126,127,127,127,0
11395,128,128,127,128,127,129,127,128,0
11399,126,127,127,126,127,126,126,127,0
11403,124,127,127,128,126,128,126,128,0
11407,132,129,128,128,127,127,126,128,0
11410,127,128,126,126,128,128,129,128,0
11413,125,126,127,128,124,127,125,126,0
11417,128,127,128,126,126,126,125,125,0
11421,126,128,128,129,128,130,128,128,0
11427,129,128,128,128,128,125,126,127,0
11435,128,127,130,130,134,128,136,129,0
11430,128,127,128,127,126,126,129,129,0
11438,127,128,126,128,131,129,127,128,0
11442,128,128,126,126,126,129,128,128,0
11445,130,127,127,125,123,126,126,126,0
11448,128,125,128,129,133,128,129,126,0
11452,121,128,128,127,130,128,128,127,0
11456,126,128,128,129,131,129,129,128,0
11459,127,128,127,126,123,128,125,126,0
11464,123,126,130,127,126,127,127,128,0
11475,128,128,129,128,124,125,126,126,0
11467,127,128,126,127,125,128,128,129,0
11479,130,126,129,127,125,129,127,128,0
11471,130,129,128,127,126,126,125,126,0
11483,123,128,127,129,129,127,128,128,0
11494,130,127,128,129,130,128,132,128,0
11488,126,128,127,130,129,130,129,129,0
11497,128,127,130,130,132,127,132,129,0
11501,128,128,128,130,127,131,130,130,0
11514,127,129,126,128,130,133,127,128,0
11519,129,127,127,127,127,130,127,128,0
11524,124,125,130,126,123,123,127,129,0
11533,130,128,127,127,125,129,127,128,0
11539,129,128,127,129,128,126,125,127,0
11552,130,127,131,126,124,127,130,128,0
11545,125,127,127,128,125,127,127,126,0
11562,127,128,125,125,127,130,129,129,0
11556,127,128,129,131,133,126,129,130,0
11567,129,128,128,127,123,126,126,126,0
11574,127,127,127,128,128,130,129,129,0
11570,123,127,127,125,122,128,126,127,0
11583,128,128,130,127,126,124,129,128,0
11578,130,128,127,127,126,127,125,127,0
11587,122,125,128,127,124,127,127,128,0
11596,128,127,125,126,127,130,131,130,0
11591,126,128,129,130,135,128,131,130,0
11600,130,128,127,127,126,130,125,126,0
11605,126,127,128,129,136,128,131,128,0
11610,127,128,129,129,123,129,127,128,0
11617,129,128,128,127,128,130,131,129,0
11624,129,128,126,126,125,128,125,126,0
11630,126,128,129,128,125,128,125,126,0
11638,128,129,126,126,129,129,128,129,0
11634,125,127,126,128,127,129,131,128,0
11643,126,128,125,128,127,129,128,129,0
11653,127,127,129,130,136,128,129,129,0
11658,128,127,126,129,127,130,127,128,0
11663,128,128,125,126,127,128,129,128,0
11648,126,127,127,127,125,126,130,128,0
11667,128,127,127,127,123,124,128,127,0
11671,126,126,128,128,127,127,126,128,0
11676,129,128,126,128,127,129,130,129,0
11681,129,128,126,127,125,128,126,127,0
11687,128,127,126,126,127,128,128,125,0
11695,124,126,127,125,124,127,127,128,0
11706,126,128,128,127,130,128,126,127,0
11700,130,129,128,128,128,128,126,126,0
11710,125,128,128,127,127,127,127,125,0
11715,127,128,128,128,124,126,126,127,0
11721,127,128,125,128,126,128,129,129,0
11727,128,129,126,128,125,128,125,128,0
11731,128,127,129,127,129,125,131,129,0
11737,127,127,129,129,135,129,130,129,0
11741,127,128,128,130,130,129,125,128,0
11746,129,128,127,128,128,130,132,128,0
11761,126,125,128,127,123,125,128,128,0
11751,127,127,126,125,124,127,130,126,0
11765,127,128,127,127,125,127,125,128,0
11769,130,128,129,129,129,128,127,126,0
11785,126,127,129,128,128,125,125,126,0
11789,128,127,129,130,132,128,132,129,0
11793,127,128,127,130,126,129,128,129,0
11797,130,129,128,128,125,127,126,127,0
11801,130,128,128,127,123,128,130,126,0
11806,128,125,128,127,125,130,128,128,0
11810,127,128,126,125,124,129,127,128,0
11813,129,129,129,126,128,128,125,127,0
11817,126,127,128,127,127,129,131,126,0
11821,124,126,130,127,123,126,125,127,0
11826,128,128,127,128,129,129,130,128,0
11830,129,128,126,127,127,127,126,127,0
11833,127,127,128,127,124,123,126,127,0
11836,125,127,130,130,133,129,130,128,0
11840,127,128,128,130,126,128,127,128,0
11843,128,128,126,127,126,129,128,128,0
11846,130,128,127,127,123,124,125,125,0
11852,124,126,131,125,126,126,128,126,0
11860,125,129,128,129,133,124,125,128,0
11863,129,129,129,126,128,130,127,127,0
11867,128,128,126,126,126,128,130,128,0
11872,124,126,128,125,123,126,124,124,0
11875,125,127,128,128,126,129,127,129,0
11879,129,128,126,127,127,129,126,128,0
11883,124,127,126,126,129,127,128,128,0
11886,127,127,130,130,131,128,131,129,0
11890,127,128,129,130,134,128,131,130,0
11893,128,128,126,129,130,132,131,129,0
11897,129,128,126,127,129,130,130,128,0
11901,128,127,126,125,124,127,126,126,0
11905,129,126,127,126,126,126,127,126,0
11909,127,128,126,126,132,129,130,127,0
11913,126,128,126,128,128,129,131,128,0
11917,125,128,127,125,127,126,130,128,0
11925,127,127,129,129,133,127,129,129,0
11930,128,128,125,126,127,129,127,129,0
11934,128,128,126,127,126,128,130,128,0
11938,128,127,127,129,122,126,126,127,0
11942,127,126,127,125,126,127,125,129,0
11945,129,129,127,127,125,127,126,128,0
11949,129,128,126,128,127,129,129,129,0
11953,126,127,128,127,125,126,126,126,0
11958,128,127,129,128,126,126,127,126,0
11962,128,129,126,129,128,130,128,128,0
11965,127,128,126,128,129,128,127,126,0
11969,126,128,127,126,126,128,126,127,0
11972,125,126,128,127,124,127,130,129,0
11976,128,129,129,130,136,128,130,129,0
11985,129,128,128,127,130,130,132,129,0
11989,129,127,127,125,126,124,126,126,0
11994,128,127,128,127,125,129,128,128,0
12001,129,128,126,126,126,127,126,129,0
12005,129,128,128,127,125,127,126,127,0
12009,131,127,127,129,131,128,132,128,0
12013,127,127,130,130,135,128,132,129,0
12017,128,128,126,127,126,130,127,128,0
12021,129,128,127,128,127,129,128,128,0
12025,131,128,127,127,126,130,129,126,0
12028,127,126,127,127,125,128,129,128,0
12031,130,129,129,127,127,126,126,127,0
12035,127,127,129,129,133,127,129,127,0
12038,126,127,126,129,131,125,126,127,0
12042,128,127,130,129,133,127,130,129,0
12046,126,127,127,128,127,129,127,128,0
12049,128,128,126,126,127,129,130,129,0
12053,128,128,127,127,123,127,126,127,0
12057,127,125,129,127,124,127,125,126,0
12060,124,127,126,128,127,128,130,129,0
12065,129,128,127,127,128,127,125,127,0
12069,125,127,127,129,125,127,124,125,0
12072,128,126,128,127,125,126,130,128,0
12076,127,127,128,130,130,129,129,129,0
12080,129,128,126,128,125,128,126,128,0
12084,129,128,128,128,129,126,123,125,0
12087,126,126,128,128,125,126,127,125,0
12091,125,128,128,130,130,129,127,127,0
12095,127,129,124,127,129,129,128,127,0
12098,128,128,127,129,128,126,124,126,0
12101,128,127,129,130,134,127,131,128,0
12105,128,128,128,129,127,129,126,127,0
12112,129,129,126,126,130,130,128,129,0
12117,129,129,127,127,126,128,128,126,0
12120,124,127,129,128,123,126,125,126,0
12124,127,128,128,128,127,129,129,128,0
12128,126,129,124,127,128,129,130,129,0
12132,130,127,127,126,125,125,127,128,0
12137,123,127,127,127,126,127,126,127,0
12140,124,127,127,126,125,126,127,128,0
12144,129,128,127,128,128,129,126,127,0
12147,129,128,128,128,127,126,126,127,0
12151,126,127,130,130,136,127,132,129,0
12154,128,127,129,129,134,128,129,129,0
12158,123,129,127,127,126,128,125,127,0
12162,128,128,129,126,127,129,129,128,0
12165,131,126,130,127,126,123,124,126,0
12169,129,125,130,128,127,127,128,127,0
12173,125,128,125,127,129,129,129,130,0
12176,127,128,126,127,124,125,124,126,0
12180,127,128,127,127,123,125,126,127,0
12183,126,127,129,130,136,127,131,127,0
12186,125,128,125,128,127,130,131,129,0
12190,128,128,125,127,126,129,130,127,0
12194,130,127,127,126,127,125,124,126,0
12198,126,127,128,126,126,128,128,129,0
12201,130,129,127,128,128,128,128,128,0
12205,128,128,128,127,127,129,128,128,0
12207,127,127,127,127,124,125,127,126,0
12210,126,126,128,127,124,126,126,127,0
12214,127,128,126,127,127,129,130,129,0
12217,124,129,127,128,129,129,129,128,0
12222,125,127,128,126,130,128,137,130,0
12226,129,126,130,130,133,127,130,129,0
12229,128,128,127,128,127,129,126,129,0
12234,127,128,126,126,126,129,125,126,0
12239,125,127,127,127,124,129,128,126,0
12243,127,126,127,125,123,124,124,126,0
12248,127,129,127,126,128,129,127,129,0
12251,128,128,126,127,126,127,128,128,0
12254,127,127,127,127,123,126,128,126,0
12257,121,127,129,130,137,128,131,129,0
12260,127,127,128,130,127,129,127,128,0
12263,128,128,126,127,126,128,126,127,0
12266,128,127,128,128,126,124,125,126,0
12270,128,125,129,128,124,129,128,126,0
12277,128,127,127,126,125,125,125,127,0
12280,128,129,129,128,126,127,125,127,0
12285,128,128,128,126,125,127,127,127,0
12290,122,127,130,130,134,128,132,130,0
12294,128,128,129,130,132,124,127,128,0
12300,129,129,127,128,125,128,126,127,0
12306,129,126,130,128,126,125,125,127,0
12309,131,125,130,128,126,124,128,128,0
12318,127,128,128,129,124,129,126,127,0
12321,130,129,126,128,128,129,127,129,0
12325,128,128,127,127,125,127,125,125,0
12329,129,126,128,126,122,126,126,127,0
12334,127,127,127,126,127,128,129,129,0
12337,128,129,128,128,127,127,126,127,0
12340,127,127,126,126,127,128,128,126,0
12344,129,127,128,126,125,126,125,126,0
12351,125,127,127,127,129,129,130,128,0
12354,126,128,125,128,129,129,130,128,0
12358,127,127,127,129,128,129,129,125,0
12361,129,127,131,131,133,127,130,129,0
12366,129,127,129,130,134,129,130,130,0
12370,129,128,126,126,126,129,127,127,0
12376,128,127,127,126,129,127,127,126,0
12380,127,127,128,127,127,128,129,125,0
12384,129,128,127,126,123,126,126,127,0
12387,129,129,129,128,127,128,125,128,0
12391,127,128,129,129,128,124,125,127,0
12394,128,127,128,128,123,125,126,127,0
12398,127,127,129,130,136,129,129,129,0
12402,127,128,126,127,125,129,128,129,0
12406,130,127,130,126,126,129,127,127,0
12409,127,126,127,129,127,126,126,127,0
12413,128,127,128,130,133,128,129,127,0
12416,127,129,125,126,126,129,127,129,0
12420,129,128,127,127,126,129,129,129,0
12423,128,127,127,125,123,126,123,123,0
12426,128,125,128,125,125,124,125,127,0
12430,129,129,126,127,131,130,130,129,0
12434,129,128,128,127,126,127,124,125,0
12438,124,126,127,127,123,126,126,127,0
12442,121,127,127,127,125,128,128,128,0
12446,128,127,128,129,130,129,129,129,0
12449,128,128,128,128,126,128,128,127,0
12452,125,128,127,127,127,127,127,125,0
12456,124,127,128,127,126,128,128,128,0
12460,123,129,126,128,128,130,127,129,0
12463,129,128,125,128,128,129,129,128,0
12467,128,127,129,131,134,127,131,128,0
12470,129,127,130,129,134,128,131,129,0
12473,129,128,126,128,128,129,127,128,0
12477,129,128,126,126,129,130,127,128,0
12480,129,127,127,125,122,125,125,127,0
12485,130,125,131,128,131,126,127,127,0
12488,124,127,125,127,126,129,130,130,0
12493,130,128,126,127,126,127,126,128,0
12497,130,126,129,128,126,128,127,126,0
12501,129,126,127,125,124,127,124,126,0
12505,129,129,129,127,126,126,126,127,0
12508,128,128,127,129,129,130,129,129,0
12511,125,128,127,127,127,127,126,127,0
12514,127,127,128,128,125,127,126,127,0
12518,124,128,126,128,130,129,130,128,0
12521,127,128,127,127,127,128,127,128,0
12524,129,128,127,127,132,128,132,128,0
12528,128,127,130,130,133,129,130,129,0
12531,128,128,129,130,133,128,126,127,0
12535,129,129,129,126,126,126,125,127,0
12540,127,127,127,128,127,130,127,128,0
12544,128,127,128,124,123,127,125,126,0
12547,127,126,129,128,127,127,128,127,0
12550,126,128,126,129,130,129,127,128,0
12554,128,128,127,127,125,126,126,126,0
12557,124,127,130,130,134,128,133,128,0
12562,127,128,129,129,124,128,125,128,0
12566,129,129,127,128,125,128,125,127,0
12571,128,128,128,128,127,128,128,127,0
12575,124,126,126,125,125,126,126,125,0
12579,127,127,126,127,128,128,131,130,0
12582,126,129,125,127,127,128,128,129,0
12585,129,128,127,127,124,125,125,127,0
12588,125,127,127,126,126,125,125,126,0
12592,122,128,129,128,127,129,127,128,0
12595,127,128,126,127,127,129,127,128,0
12600,129,129,128,128,129,129,128,127,0
12604,129,126,128,126,125,127,127,127,0
12609,128,127,127,127,128,126,126,128,0
12619,125,128,127,128,130,129,129,129,0
12623,124,128,128,128,127,126,128,129,0
12627,128,128,130,130,135,128,129,128,0
12631,129,127,131,129,135,129,132,129,0
12634,128,128,125,127,129,131,131,130,0
12638,128,128,125,127,127,130,130,130,0
12642,127,126,127,127,126,128,126,127,0
12645,124,128,130,128,130,126,125,127,0
12648,131,127,128,126,127,127,127,127,0
12654,128,127,126,126,129,129,129,129,0
12658,126,127,127,126,124,127,125,127,0
12661,129,127,129,127,128,124,126,129,0
12665,127,128,125,127,126,127,125,128,0
12669,128,128,129,129,127,129,128,127,0
12672,124,125,129,128,124,124,125,126,0
12676,127,125,130,130,135,128,131,129,0
12679,128,128,128,131,131,128,127,127,0
12683,129,128,127,128,131,129,129,128,0
12686,130,127,131,126,124,128,125,125,0
12689,127,125,129,129,131,126,129,125,0
12692,127,129,126,126,126,129,129,129,0
12696,129,129,130,129,127,129,125,125,0
12701,126,126,128,127,123,125,125,125,0
12704,128,128,129,128,125,127,126,128,0
12707,129,129,126,127,125,128,127,129,0
12710,129,128,130,128,127,128,126,127,0
12714,126,127,128,127,127,127,128,127,0
12717,127,127,131,130,134,128,132,129,0
12720,127,128,128,129,125,129,126,128,0
12724,129,128,128,126,127,128,127,127,0
12728,127,127,127,128,127,128,130,126,0
12732,126,127,128,129,127,125,126,127,0
12736,124,128,127,125,126,129,128,129,0
12741,129,129,126,127,124,127,128,128,0
12747,129,127,126,127,125,126,126,127,0
12750,131,125,128,125,124,125,125,126,0
12754,126,127,127,126,128,128,129,130,0
12757,127,129,125,127,125,126,125,126,0
12761,127,128,128,128,126,125,125,127,0
12764,129,127,128,127,128,128,134,128,0
12767,127,128,129,131,131,126,127,128,0
12772,127,128,129,128,132,130,129,129,0
12776,129,128,128,128,124,126,124,127,0
12780,127,124,128,126,125,127,124,125,0
12784,127,128,126,126,127,129,129,129,0
12788,129,128,127,128,126,126,126,127,0
12791,127,127,128,129,126,128,130,129,0
12794,127,127,129,129,133,128,132,129,0
12798,128,128,129,130,128,129,129,129,0
12801,128,128,126,125,126,129,126,128,0
12804,129,128,129,126,125,128,125,126,0
12807,125,127,128,129,128,125,125,126,0
12810,122,127,126,124,125,129,131,129,0
12813,129,129,127,126,125,128,125,127,0
12817,128,128,127,126,127,128,128,128,0
12820,124,127,127,128,127,126,126,128,0
12823,128,127,128,126,128,129,131,129,0
12826,128,128,127,127,126,127,127,128,0
12830,130,128,130,127,128,126,125,125,0
12838,124,127,128,127,126,123,125,128,0
12843,127,127,127,127,125,127,126,127,0
12847,127,128,128,129,128,127,127,128,0
12852,128,128,127,128,129,128,128,126,0
12857,123,126,129,130,133,128,133,128,0
12860,128,128,129,130,136,129,129,129,0
12864,128,128,125,125,128,130,128,129,0
12867,130,128,128,127,124,127,125,126,0
12871,128,125,128,127,123,124,124,125,0
12874,128,127,129,130,136,129,129,128,0
12878,126,129,126,127,125,129,128,129,0
12882,129,129,127,127,124,127,125,127,0
12886,131,128,130,125,127,125,128,127,0
12890,126,127,128,129,128,130,130,129,0
12893,129,128,126,128,126,129,127,128,0
12896,129,128,126,128,127,129,127,127,0
12900,129,127,128,128,123,123,125,126,0
12903,120,127,129,127,123,126,125,126,0
12907,129,129,128,128,125,127,126,128,0
12910,128,128,129,127,127,127,125,126,0
12913,128,126,129,129,125,125,125,126,0
12917,126,126,128,128,126,129,128,128,0
12920,125,128,125,128,128,129,129,130,0
12923,130,128,127,128,130,128,126,128,0
12927,125,128,128,126,125,125,128,127,0
