Start Recording
4,129,128,129,127,126,127,127,128,0
8,129,128,130,126,126,123,126,128,0
12,128,127,130,128,125,125,127,127,0
16,128,127,131,128,128,127,127,128,0
21,127,127,129,129,125,129,123,126,0
24,131,127,129,130,129,128,123,126,0
28,131,126,129,131,129,128,124,126,0
31,129,126,129,127,128,130,130,128,0
53,127,129,128,126,128,130,130,127,0
58,127,128,129,125,127,125,129,128,0
62,128,127,130,126,128,128,129,127,0
67,128,126,129,127,127,129,129,128,0
71,127,128,128,127,125,126,129,128,0
75,127,126,129,129,126,125,123,126,0
78,128,126,129,128,128,127,124,127,0
82,128,126,129,127,130,129,128,128,0
85,126,128,130,128,129,129,130,128,0
88,126,128,128,128,129,124,129,128,0
91,126,126,129,128,128,128,130,128,0
95,127,126,130,127,128,128,129,128,0
98,127,128,130,126,129,128,128,126,0
101,127,126,132,126,124,124,127,127,0
105,128,126,131,127,125,127,128,128,0
108,128,126,130,128,127,127,129,129,0
114,128,129,129,126,127,127,127,128,0
119,127,128,128,126,121,126,126,126,0
121,124,127,130,126,127,127,127,127,0
124,128,128,127,128,127,128,127,127,0
127,128,128,126,127,127,127,127,127,0
131,127,128,129,126,122,125,126,128,0
134,127,128,127,126,128,127,127,127,0
137,128,128,126,126,127,128,128,127,0
140,129,128,126,128,127,127,127,127,0
142,129,127,127,127,124,126,127,126,0
145,127,126,127,130,129,129,123,126,0
148,130,128,126,129,128,128,125,128,0
151,127,128,127,125,128,129,128,128,0
155,127,128,126,125,126,125,126,127,0
159,130,127,128,125,128,125,126,127,0
162,127,127,127,128,128,128,127,127,0
165,127,128,127,128,126,127,126,128,0
169,127,128,127,128,127,127,127,127,0
172,128,127,128,127,125,126,126,127,0
175,127,127,127,129,129,128,126,127,0
179,128,129,126,128,127,128,127,128,0
191,127,128,127,127,127,127,128,128,0
201,128,126,126,130,128,129,123,127,0
196,126,126,127,128,127,126,128,128,0
204,130,127,126,130,129,128,127,128,0
209,126,128,126,127,126,127,129,129,0
213,128,127,126,126,127,126,129,128,0
218,129,126,126,128,127,128,129,128,0
221,127,128,124,128,127,128,129,128,0
224,127,128,126,128,126,127,128,128,0
228,127,127,126,127,126,127,126,127,0
233,126,126,126,128,127,129,125,127,0
236,128,127,123,127,128,130,128,128,0
239,127,129,125,128,129,129,129,128,0
250,127,128,126,127,128,127,129,128,0
255,127,127,126,127,129,129,129,128,0
258,128,129,125,128,130,127,129,128,0
261,127,128,126,128,130,127,129,128,0
265,126,128,129,129,130,128,124,127,0
269,129,127,128,130,131,128,124,126,0
272,129,125,129,126,129,128,129,127,0
275,127,128,129,124,128,128,129,128,0
279,126,128,128,125,130,127,129,128,0
282,127,127,128,125,129,128,129,128,0
285,127,128,129,128,127,127,129,128,0
288,127,128,129,128,127,129,129,128,0
292,127,128,130,128,127,127,128,128,0
295,127,128,130,126,125,126,129,127,0
298,127,128,130,127,127,128,129,128,0
301,127,128,130,127,127,127,129,128,0
304,126,129,129,126,125,126,123,126,0
307,130,127,128,129,129,129,124,127,0
310,130,127,129,128,124,128,129,128,0
316,127,128,129,126,128,127,129,128,0
319,128,128,128,125,128,126,128,127,0
322,127,127,129,126,129,126,128,128,0
330,128,128,127,128,128,126,128,128,0
334,128,129,125,129,128,127,127,128,0
337,127,128,126,127,127,126,127,127,0
340,127,126,126,130,129,128,123,126,0
343,129,128,125,130,125,126,128,128,0
349,127,129,125,125,127,128,128,128,0
355,127,128,124,126,129,128,129,128,0
358,126,127,125,131,128,128,123,127,0
364,130,127,124,127,129,130,129,128,0
368,126,128,124,126,128,129,129,128,0
371,127,128,122,126,128,127,129,128,0
374,126,128,125,126,126,127,129,128,0
377,127,128,122,126,128,128,128,128,0
380,127,128,123,128,126,128,128,128,0
388,126,127,125,128,128,127,128,127,0
384,127,128,124,127,128,127,129,127,0
400,127,128,124,129,129,127,128,128,0
403,127,128,125,130,128,128,128,127,0
407,127,127,125,127,128,125,123,126,0
410,129,126,126,130,130,129,124,126,0
413,129,127,127,131,127,126,131,128,0
419,127,128,126,128,128,129,129,128,0
423,127,129,127,125,128,128,130,129,0
426,127,127,129,127,131,126,127,128,0
429,127,127,130,127,130,127,128,128,0
432,128,129,128,126,130,128,129,128,0
435,127,129,131,126,129,125,124,127,0
439,129,127,132,129,127,127,125,127,0
442,128,128,131,129,127,129,125,126,0
444,127,128,131,128,130,132,131,129,0
447,128,128,132,128,128,129,130,129,0
450,127,126,133,126,126,127,128,128,0
455,127,126,132,128,129,127,127,128,0
458,128,127,129,126,128,129,127,128,0
470,127,128,128,127,128,127,128,128,0
479,126,127,131,129,127,126,128,127,0
485,125,127,128,131,129,130,123,126,0
488,129,127,126,126,129,129,128,128,0
492,127,128,126,129,130,128,129,129,0
495,127,127,128,128,126,126,128,127,0
498,127,126,126,128,128,129,128,128,0
501,128,129,125,129,129,130,128,128,0
505,128,128,124,127,129,128,128,128,0
508,127,124,126,131,130,130,123,126,0
512,129,126,123,130,129,130,123,126,0
515,128,125,126,127,131,129,130,128,0
518,130,126,126,127,129,128,130,128,0
521,126,127,124,125,128,126,129,126,0
524,126,126,126,127,130,127,130,128,0
527,128,128,126,126,129,128,129,128,0
531,126,128,125,126,126,127,128,128,0
534,127,128,128,127,126,127,127,128,0
537,131,127,127,131,128,129,124,126,0
551,130,128,128,128,128,131,131,128,0
557,128,129,129,125,124,127,130,126,0
561,128,129,130,127,127,125,128,127,0
565,127,128,130,126,129,127,130,128,0
568,127,129,131,125,126,126,128,128,0
571,127,129,130,126,127,127,128,127,0
574,128,127,133,126,126,124,128,127,0
577,128,128,132,126,125,124,127,127,0
586,127,128,128,127,129,129,128,128,0
589,128,128,128,128,127,128,128,128,0
594,128,127,129,128,126,129,122,126,0
597,129,127,127,130,131,129,123,125,0
604,130,127,128,128,126,129,130,129,0
607,127,128,125,126,129,129,129,128,0
611,127,128,127,124,125,125,129,128,0
615,127,127,127,126,127,123,130,127,0
624,129,128,127,127,129,128,128,127,0
628,129,128,126,128,128,128,128,128,0
632,127,127,127,126,124,125,126,128,0
635,126,125,128,130,128,128,122,126,0
638,130,127,127,130,129,126,127,128,0
641,129,126,126,127,130,127,128,128,0
648,125,126,127,127,127,126,127,127,0
652,127,127,129,127,125,125,127,127,0
655,127,125,130,126,129,128,127,128,0
658,127,128,127,126,126,128,129,128,0
661,126,127,127,128,128,127,128,128,0
681,127,128,130,128,129,127,127,127,0
685,127,127,128,129,128,128,127,127,0
689,128,128,129,127,127,128,127,128,0
692,127,127,128,127,129,127,127,128,0
695,126,126,129,128,128,125,126,127,0
699,127,127,129,128,127,128,127,128,0
703,128,128,129,129,128,128,127,127,0
706,127,128,129,128,128,125,127,127,0
710,127,126,129,127,125,127,127,127,0
713,128,127,128,126,129,129,128,128,0
720,128,127,128,128,128,128,128,128,0
723,127,128,129,128,128,127,127,128,0
726,127,126,130,130,128,128,123,126,0
729,129,127,129,131,129,128,123,126,0
732,127,128,129,126,128,128,129,127,0
739,128,128,129,125,127,127,128,127,0
742,127,127,129,127,125,126,128,127,0
745,128,127,129,127,127,128,128,127,0
748,128,128,127,128,127,127,127,128,0
750,127,127,127,127,125,127,128,127,0
753,128,127,128,127,125,125,126,127,0
757,128,127,127,127,126,128,127,127,0
759,128,128,126,128,127,128,127,128,0
763,127,128,126,128,125,128,127,128,0
766,127,127,127,128,121,127,125,126,0
769,130,127,126,130,128,129,124,126,0
772,130,126,127,126,128,129,129,128,0
775,126,128,127,127,128,128,129,128,0
778,127,127,128,127,127,127,129,127,0
781,126,127,128,127,127,126,129,127,0
785,127,127,128,128,128,128,129,129,0
793,127,129,128,128,128,128,127,129,0
798,128,127,128,128,127,126,129,128,0
801,126,128,127,128,128,125,128,128,0
804,127,128,128,129,129,127,130,127,0
807,128,129,128,128,129,127,129,128,0
810,126,128,127,127,126,126,128,127,0
814,127,127,128,127,129,127,128,128,0
817,129,128,128,128,126,128,128,127,0
820,128,128,129,128,127,126,128,127,0
827,127,128,128,127,124,128,123,126,0
832,130,126,128,130,128,129,123,126,0
837,130,127,128,130,129,126,127,128,0
843,127,128,128,126,127,128,129,127,0
846,127,129,128,126,129,128,128,128,0
852,128,127,128,127,130,127,129,128,0
855,128,128,127,127,128,128,127,128,0
858,127,128,126,127,127,129,128,128,0
861,127,129,127,126,127,127,128,128,0
864,126,128,127,126,126,124,129,128,0
866,127,127,125,128,128,129,128,127,0
869,127,128,125,128,127,128,129,128,0
872,128,128,126,127,123,128,124,126,0
875,130,126,125,130,129,128,123,127,0
878,129,127,124,130,128,127,128,128,0
881,128,128,124,128,128,127,128,129,0
885,126,128,124,127,129,127,128,128,0
889,127,127,125,126,127,127,129,128,0
891,126,127,125,126,128,128,128,129,0
894,126,129,124,128,129,129,128,129,0
897,127,128,125,127,127,125,128,129,0
900,126,127,126,130,128,128,123,127,0
903,129,127,125,129,128,129,124,127,0
906,130,125,124,126,129,129,130,129,0
941,127,128,124,125,127,127,128,129,0
950,126,128,126,125,126,126,129,128,0
963,125,128,125,126,127,128,128,129,0
967,128,129,126,129,127,128,128,128,0
971,126,128,127,127,127,127,128,129,0
976,126,128,125,131,128,129,123,126,0
979,129,127,125,130,128,129,124,126,0
983,129,128,124,126,129,128,131,130,0
987,126,128,124,125,127,127,128,128,0
990,126,126,126,127,127,124,127,128,0
995,127,126,127,127,127,128,127,128,0
999,127,128,126,128,128,130,129,128,0
1002,127,128,127,126,127,128,128,128,0
1006,127,127,127,127,125,127,127,127,0
1010,127,124,129,132,130,130,122,126,0
1014,129,127,130,129,120,129,129,128,0
1019,128,128,126,128,126,129,129,128,0
1023,127,128,129,127,125,127,128,127,0
1026,127,126,130,129,129,128,126,127,0
1028,130,127,130,128,123,129,130,128,0
1031,131,128,127,128,128,129,129,128,0
1034,128,126,129,126,126,128,128,128,0
1038,128,126,129,126,127,126,128,129,0
1042,128,129,130,128,129,130,128,128,0
1045,128,129,130,127,129,128,129,127,0
1047,126,128,131,129,127,123,126,126,0
1051,130,127,131,131,131,130,125,126,0
1054,128,127,132,128,132,132,130,128,0
1057,126,129,131,127,129,130,132,129,0
1060,127,128,132,125,125,127,130,128,0
1066,125,126,133,127,132,128,128,128,0
1069,128,128,132,125,130,128,128,128,0
1071,128,129,132,127,131,128,129,128,0
1074,125,129,131,126,129,127,128,127,0
1078,125,128,133,129,127,126,129,127,0
1080,128,128,131,129,128,128,127,128,0
1083,127,128,127,128,127,127,128,127,0
1086,127,128,127,129,127,127,121,126,0
1089,130,127,128,131,128,128,124,127,0
1092,128,127,126,129,122,129,130,126,0
1096,128,128,128,125,127,128,128,127,0
1102,127,125,127,127,127,128,127,128,0
1105,128,126,127,125,124,125,127,127,0
1108,128,128,124,125,126,129,127,127,0
1111,128,129,127,125,126,128,127,127,0
1114,128,128,124,127,127,126,128,127,0
1117,127,127,126,128,122,126,124,126,0
1120,129,127,125,130,127,128,125,127,0
1123,129,127,126,125,127,128,127,128,0
1126,131,126,128,125,128,128,129,128,0
1129,125,126,125,128,123,125,127,127,0
1133,127,128,125,126,130,129,128,128,0
1136,127,129,126,128,129,130,127,128,0
1154,129,128,129,127,130,125,124,125,0
1161,131,126,128,131,129,130,124,126,0
1165,131,126,127,128,129,131,130,126,0
1168,130,127,128,128,128,128,129,128,0
1172,127,127,127,127,131,128,131,128,0
1175,127,127,129,127,129,127,130,128,0
1178,128,127,128,128,126,127,129,128,0
1181,128,128,129,128,127,127,128,128,0
1184,127,129,131,129,128,124,128,128,0
1187,127,128,131,125,128,126,130,127,0
1190,128,127,129,129,128,127,125,127,0
1194,127,129,129,127,129,129,129,128,0
1197,126,128,128,126,128,127,128,128,0
1200,127,128,130,126,128,127,128,128,0
1204,127,127,129,128,126,125,128,128,0
1207,127,128,128,129,129,128,128,127,0
1213,127,128,128,128,127,125,127,127,0
1217,127,127,130,131,128,129,123,126,0
1221,131,126,128,130,129,130,124,127,0
1224,126,129,130,128,130,129,130,127,0
1227,128,129,128,125,126,128,129,128,0
1230,128,128,128,125,127,127,129,128,0
1234,127,128,130,127,125,127,129,128,0
1237,127,128,127,127,128,127,128,128,0
1240,127,128,127,126,126,127,127,128,0
1244,126,128,128,128,126,125,128,127,0
1247,127,127,128,127,122,127,127,128,0
1257,128,128,127,128,127,129,127,128,0
1260,128,128,125,128,127,128,126,127,0
1263,128,126,125,126,125,129,124,126,0
1267,129,127,124,130,130,129,124,127,0
1272,131,127,124,127,129,129,129,128,0
1275,127,128,125,125,127,129,128,128,0
1279,127,128,125,125,127,126,128,128,0
1283,127,128,126,125,127,127,128,128,0
1286,128,129,126,128,126,128,129,128,0
1290,127,128,125,128,127,127,128,127,0
1293,126,128,126,126,126,125,127,128,0
1297,127,127,127,125,127,127,128,127,0
1301,127,127,127,127,128,127,127,128,0
1304,127,128,128,129,127,128,127,128,0
1307,126,126,129,131,130,128,124,126,0
1310,129,127,128,131,129,128,123,126,0
1315,129,126,131,128,130,129,129,128,0
1319,126,128,129,126,130,129,130,128,0
1322,126,128,132,125,127,126,129,128,0
1329,127,128,131,125,127,127,129,128,0
1335,127,128,130,126,127,127,129,128,0
1338,127,128,131,128,128,127,129,129,0
1344,126,127,131,127,125,125,128,128,0
1349,127,127,131,126,128,127,129,128,0
1354,126,127,130,129,129,129,127,128,0
1357,127,128,128,128,127,128,128,128,0
1360,128,128,129,127,126,126,124,126,0
1364,128,126,129,129,126,127,125,127,0
1367,130,128,128,129,127,129,127,129,0
1371,127,128,127,127,127,129,129,128,0
1375,127,128,129,127,128,128,128,128,0
1377,128,127,129,126,128,127,129,128,0
1380,127,127,128,128,127,127,128,128,0
1383,128,127,127,129,127,128,128,128,0
1386,128,128,125,128,127,127,127,128,0
1389,126,127,125,128,127,125,127,128,0
1392,126,127,124,129,128,128,127,127,0
1395,128,128,124,128,126,128,128,128,0
1398,127,128,123,127,126,127,127,127,0
1401,128,127,125,126,128,128,123,126,0
1404,130,127,124,129,128,129,123,126,0
1407,129,127,124,126,129,128,129,128,0
1410,127,128,125,126,127,128,128,128,0
1421,127,127,126,127,128,127,129,128,0
1425,127,127,127,127,128,128,129,127,0
1428,128,128,126,128,129,128,129,128,0
1431,127,128,128,127,127,127,128,127,0
1436,128,127,128,128,128,126,127,127,0
1441,128,127,129,128,123,125,127,128,0
1447,127,127,128,129,128,129,128,127,0
1450,127,128,128,128,127,127,128,127,0
1457,127,128,129,128,126,127,123,126,0
1462,130,128,129,130,130,129,124,126,0
1467,130,127,129,126,129,128,129,129,0
1471,127,129,129,125,127,128,129,128,0
1474,126,128,129,126,128,127,129,128,0
1478,126,128,129,125,128,128,129,129,0
1481,127,128,127,127,128,129,128,127,0
1487,128,128,127,127,126,128,128,129,0
1490,127,127,128,130,128,129,123,127,0
1494,129,127,126,129,128,129,123,127,0
1548,127,127,125,125,128,130,129,129,0
1552,127,128,127,126,127,128,129,128,0
1557,126,127,125,126,127,126,127,129,0
1562,126,127,126,125,126,126,128,128,0
1565,127,128,125,127,128,127,128,128,0
1569,127,128,125,127,128,128,128,128,0
1618,127,127,126,126,125,125,127,128,0
1627,126,127,126,127,128,128,129,128,0
1635,127,128,125,128,129,129,128,128,0
1641,126,128,126,128,127,128,129,128,0
1649,125,128,126,127,127,125,128,127,0
1685,126,126,126,130,128,128,123,127,0
1703,130,128,126,130,126,126,129,128,0
1711,127,129,125,128,129,129,129,128,0
1754,127,129,124,128,127,126,129,128,0
1761,126,128,126,128,128,126,129,127,0
1769,128,129,126,129,127,128,129,128,0
1781,127,128,129,128,122,125,128,128,0
1773,128,129,128,129,128,128,129,128,0
1785,128,126,129,131,129,128,123,126,0
1789,131,127,129,130,125,125,129,128,0
1795,128,128,129,126,126,129,129,128,0
1800,128,129,129,125,127,127,129,128,0
1806,126,127,129,125,129,128,128,128,0
1810,128,128,129,127,126,126,128,127,0
1818,127,128,128,128,128,128,128,128,0
1825,127,128,129,127,127,126,127,127,0
1833,129,127,128,131,130,129,124,127,0
1830,127,127,127,126,125,127,122,125,0
1847,128,127,128,127,129,129,130,128,0
1840,127,128,128,125,128,128,129,128,0
1843,127,128,127,126,132,125,129,128,0
1837,128,127,127,126,127,129,130,128,0
1850,128,128,127,128,128,129,129,128,0
1857,127,127,129,126,127,128,128,128,0
1865,127,127,129,131,129,128,123,126,0
1869,131,127,128,132,129,127,128,128,0
1873,128,129,129,128,125,130,131,129,0
1886,127,127,129,128,127,128,131,128,0
1890,127,128,126,125,127,126,128,127,0
1894,126,126,128,128,128,129,130,128,0
1901,128,128,128,127,128,129,129,128,0
1905,127,128,128,126,127,127,128,127,0
1956,128,126,129,131,129,128,124,125,0
1968,130,126,129,130,128,126,129,128,0
1974,128,128,128,126,131,128,130,128,0
2028,129,127,128,125,127,127,130,128,0
2032,126,126,128,126,128,129,127,128,0
2023,128,127,127,128,127,128,130,128,0
2038,126,128,128,128,127,128,128,128,0
2048,127,129,129,129,126,127,128,128,0
2052,126,127,130,129,127,126,128,128,0
2055,127,128,132,126,130,127,128,128,0
2059,126,129,129,127,128,128,128,128,0
2062,127,128,129,127,126,127,128,128,0
2066,126,128,130,127,125,125,126,127,0
2072,130,127,128,129,129,130,123,126,0
2076,129,128,129,129,130,129,130,128,0
2079,127,128,128,128,125,128,127,127,0
2083,128,127,129,126,124,127,129,127,0
2087,127,125,130,128,131,129,127,127,0
2091,127,128,129,127,128,129,127,128,0
2094,128,128,127,127,128,128,128,128,0
2098,127,125,128,131,128,128,124,126,0
2104,129,126,127,130,129,129,123,126,0
2107,127,128,129,128,132,131,129,128,0
2110,126,128,127,128,127,127,129,128,0
2114,126,128,126,127,129,126,129,127,0
2120,128,127,127,127,128,128,131,128,0
2124,127,128,126,128,127,128,128,128,0
2127,127,128,124,126,127,128,128,128,0
2130,127,128,127,127,126,127,128,128,0
2134,127,127,127,126,127,127,128,128,0
2137,127,128,125,128,127,128,128,128,0
2140,128,128,126,129,129,128,127,128,0
2144,127,128,126,128,124,124,127,127,0
2147,129,126,126,131,129,129,122,126,0
2150,130,127,127,131,127,126,130,129,0
2158,127,129,126,126,129,129,129,128,0
2162,126,128,128,125,127,126,128,128,0
2167,126,125,126,127,129,127,128,128,0
2170,127,128,127,126,129,129,128,129,0
2174,127,128,127,127,128,129,128,128,0
2178,128,129,130,127,123,126,128,128,0
2181,126,127,129,130,124,128,124,126,0
2185,129,127,129,130,128,127,129,128,0
2188,127,128,128,129,128,128,128,128,0
2192,127,129,127,129,128,127,128,128,0
2195,127,128,128,126,128,127,128,129,0
2199,126,128,128,127,128,128,127,128,0
2203,126,128,128,128,127,128,128,128,0
2207,126,128,128,128,127,127,128,127,0
2211,127,125,126,129,128,128,123,127,0
2225,129,127,127,130,129,127,128,127,0
2230,128,128,128,127,128,129,129,128,0
2237,127,127,127,126,127,126,130,128,0
2234,127,128,125,125,127,127,129,128,0
2247,127,127,126,126,129,127,129,128,0
2252,127,128,127,129,127,128,129,128,0
2255,127,128,127,126,127,126,128,128,0
2259,125,127,127,125,127,126,128,128,0
2262,128,127,127,127,127,127,127,128,0
2265,127,128,126,128,128,129,127,128,0
2269,127,128,126,129,127,124,124,126,0
2292,130,127,127,132,128,129,124,126,0
2296,130,127,126,131,129,129,127,127,0
2300,130,128,126,127,128,129,129,128,0
2303,127,128,127,126,128,128,128,129,0
2307,127,128,128,125,127,125,129,128,0
2310,129,128,128,126,129,127,129,128,0
2360,127,128,128,127,127,129,128,128,0
2370,127,128,128,128,128,128,128,128,0
2375,127,127,130,126,127,127,128,128,0
2379,125,127,131,128,126,127,127,127,0
2383,127,127,130,129,126,129,128,128,0
2386,127,127,129,128,125,126,128,127,0
2390,128,126,129,132,127,128,123,126,0
2393,129,126,129,131,128,129,123,126,0
2397,127,128,130,126,126,127,130,129,0
2400,127,129,128,127,127,128,128,128,0
2403,127,128,129,126,126,127,129,128,0
2407,127,128,130,126,124,124,128,128,0
2410,127,129,130,128,129,128,128,128,0
2417,127,128,128,128,129,127,128,127,0
2414,128,128,129,129,129,128,128,128,0
2422,127,128,129,125,127,125,128,127,0
2430,128,128,128,127,128,129,127,127,0
2434,128,128,127,128,126,128,127,128,0
2437,128,128,127,126,125,125,125,127,0
2442,130,127,126,130,129,129,122,127,0
2446,130,127,125,131,125,124,129,129,0
2456,127,128,127,128,128,127,128,128,0
2460,127,128,128,125,126,127,128,128,0
2464,127,128,125,126,126,125,128,128,0
2469,127,129,124,128,128,128,128,128,0
2475,126,128,124,129,128,128,128,128,0
2479,127,128,125,128,124,126,127,127,0
2483,127,126,124,131,130,129,123,127,0
2486,130,127,126,131,127,125,129,128,0
2490,128,129,124,127,127,130,130,129,0
2493,127,128,124,124,127,126,128,128,0
2499,127,127,125,126,127,126,128,127,0
2503,127,127,128,126,128,127,128,128,0
2506,127,128,128,126,127,129,129,128,0
2509,127,127,127,125,127,127,128,128,0
2512,127,127,128,131,129,129,124,126,0
2515,130,127,129,131,128,126,131,127,0
2519,128,128,130,125,126,128,129,127,0
2524,128,128,132,128,129,128,129,128,0
2528,127,126,131,128,127,125,129,128,0
2535,129,126,131,129,128,128,128,128,0
2539,128,128,128,127,128,129,129,128,0
2542,127,128,130,128,127,126,125,126,0
2545,128,128,129,129,127,127,125,127,0
2549,128,128,127,130,129,127,129,127,0
2554,127,128,130,127,130,131,130,129,0
2559,127,128,129,127,129,128,131,128,0
2566,126,126,129,125,128,126,130,128,0
2569,128,128,127,126,129,126,128,127,0
2573,127,129,127,126,128,128,129,128,0
2576,127,128,126,128,130,125,128,127,0
2580,127,126,128,126,127,126,127,127,0
2584,126,128,127,126,127,128,128,128,0
2587,127,128,125,128,128,129,128,128,0
2590,128,128,127,126,125,127,126,126,0
2595,130,127,126,129,129,128,123,126,0
2598,130,127,127,130,131,130,125,128,0
2602,128,128,127,124,127,130,130,125,0
2605,129,126,127,127,128,125,129,127,0
2607,126,127,128,126,128,127,128,126,0
2610,126,126,129,126,127,128,128,128,0
2615,127,128,127,126,128,127,128,128,0
2618,127,128,126,127,125,125,128,127,0
2621,129,126,128,128,125,124,128,128,0
2624,126,128,127,129,127,127,128,128,0
2627,127,128,126,127,128,129,128,127,0
2631,127,128,126,128,126,129,128,127,0
2634,128,128,127,129,127,129,123,126,0
2637,129,127,126,129,129,130,123,126,0
2640,128,127,127,127,132,129,129,128,0
2643,127,128,126,128,129,128,129,127,0
2647,126,127,126,128,129,127,130,127,0
2651,129,127,127,128,130,128,128,128,0
2654,126,128,127,129,130,130,129,129,0
2661,127,128,127,129,127,128,127,128,0
2665,127,128,128,129,129,124,124,127,0
2668,129,127,128,130,127,127,125,126,0
2673,128,126,129,126,128,130,130,129,0
2678,127,128,128,126,128,129,129,128,0
2684,128,128,129,126,129,126,130,128,0
2688,127,128,130,126,127,125,127,127,0
2692,127,128,129,127,128,127,128,128,0
2695,128,128,130,128,127,127,129,128,0
2699,126,127,129,128,126,125,128,127,0
2702,127,127,130,127,127,126,127,127,0
2705,127,126,128,127,125,129,128,128,0
2709,128,128,128,128,126,128,128,128,0
2713,127,128,129,129,127,128,123,125,0
2716,131,127,129,130,129,127,124,126,0
2721,130,127,127,129,124,128,128,128,0
2725,128,128,127,126,128,129,128,128,0
2730,127,128,126,128,127,127,128,128,0
2733,127,128,127,125,127,128,128,128,0
2737,129,128,127,129,128,128,128,128,0
2740,127,128,126,128,127,129,128,128,0
2744,126,128,125,128,127,127,127,127,0
2747,128,127,127,126,123,127,128,128,0
2752,127,128,126,128,129,127,128,128,0
2756,128,128,126,128,129,126,128,128,0
2760,127,128,125,127,129,127,128,127,0
2764,130,127,125,129,129,129,125,126,0
2767,130,126,125,129,129,130,124,127,0
2771,126,129,125,127,128,128,129,128,0
2774,127,128,126,127,127,127,130,129,0
2778,129,126,127,128,127,126,128,128,0
2782,127,127,127,126,126,128,129,128,0
2785,128,128,126,128,126,129,128,128,0
2797,126,127,129,125,126,127,128,128,0
2790,127,128,126,127,126,127,128,129,0
2802,127,127,128,127,125,127,128,127,0
2809,127,127,128,128,128,128,128,128,0
2813,126,128,126,127,127,127,125,127,0
2816,129,127,126,130,128,128,123,126,0
2820,130,127,127,131,129,129,124,127,0
2824,124,128,127,128,128,127,129,128,0
2827,128,127,127,127,128,127,129,128,0
2834,127,126,128,127,128,126,129,128,0
2837,125,128,127,125,127,127,128,128,0
2841,128,129,127,126,127,129,128,128,0
2844,126,128,128,126,128,127,129,128,0
2848,126,128,128,130,128,125,124,126,0
2852,130,127,128,131,130,130,123,127,0
2856,128,127,127,125,129,129,129,128,0
2860,129,129,128,124,130,127,129,129,0
2864,129,127,128,127,128,127,127,128,0
2867,124,126,129,127,129,125,128,128,0
2870,126,128,128,125,129,130,129,129,0
2874,127,129,128,127,126,129,127,128,0
2878,126,128,128,128,126,127,127,127,0
2880,127,127,128,126,125,126,128,127,0
2884,127,128,127,127,128,129,128,128,0
2887,127,128,127,129,127,126,127,128,0
2890,126,128,127,130,129,129,123,126,0
2894,130,127,127,131,130,128,123,126,0
2898,130,127,126,129,128,131,132,128,0
2903,127,128,126,126,129,128,128,128,0
2906,127,125,126,128,130,129,130,128,0
2910,126,126,126,128,129,126,128,128,0
2915,127,128,125,128,129,131,130,128,0
2918,126,128,124,128,128,130,130,128,0
2924,127,128,126,125,127,124,123,127,0
2929,130,127,126,129,129,130,124,125,0
2933,130,127,127,127,130,130,130,128,0
2936,126,127,127,128,130,128,131,129,0
2940,126,126,129,126,128,128,130,128,0
2944,126,126,129,126,129,125,129,127,0
2947,128,128,130,127,130,129,130,128,0
2950,125,128,129,125,127,129,130,128,0
2954,127,129,130,126,122,125,126,126,0
2959,129,127,128,130,131,128,123,126,0
2964,130,127,128,129,128,127,129,127,0
2968,128,128,129,127,129,131,128,126,0
2971,127,128,129,128,128,128,128,128,0
2974,127,128,130,128,126,124,129,127,0
2977,128,127,128,128,128,127,129,128,0
2981,127,128,130,127,129,127,128,128,0
2985,128,128,130,127,127,126,128,128,0
2988,127,127,130,127,127,124,128,127,0
2992,127,128,127,131,129,130,124,126,0
2997,129,128,127,129,128,129,130,128,0
3001,126,128,126,128,124,123,129,126,0
3004,128,128,126,127,127,127,128,128,0
3008,127,127,127,128,125,129,129,127,0
3011,128,128,126,128,128,131,129,128,0
3016,127,129,126,128,130,125,127,128,0
3020,127,127,128,129,129,130,122,126,0
3024,130,127,125,129,130,131,124,127,0
3027,127,127,125,127,130,129,129,128,0
3031,126,129,126,126,128,127,128,127,0
3036,127,127,128,127,129,130,124,126,0
3041,130,127,126,129,130,130,124,127,0
3044,131,127,126,127,130,131,129,128,0
3047,127,129,127,127,130,128,130,128,0
3050,126,128,127,125,128,127,129,128,0
3054,127,128,128,126,128,128,128,128,0
3058,127,128,127,127,129,129,128,128,0
3061,127,128,127,127,128,128,129,127,0
3064,127,128,128,128,128,127,128,127,0
3067,127,128,127,127,129,129,128,129,0
3070,127,128,127,127,127,129,127,128,0
3073,127,128,126,127,122,128,127,128,0
3076,126,125,128,127,127,126,128,128,0
3081,128,127,128,128,122,128,129,127,0
3084,127,129,126,128,131,129,130,127,0
3087,128,128,127,127,127,127,127,128,0
3092,127,126,129,127,125,126,127,128,0
3095,128,128,128,129,131,130,123,126,0
3099,131,127,126,130,125,126,128,128,0
3102,129,128,128,127,128,128,128,128,0
3106,129,127,130,127,125,128,127,127,0
3116,127,127,129,128,122,127,127,128,0
3119,128,127,129,127,128,130,128,128,0
3123,127,128,128,126,126,129,128,128,0
3127,126,125,129,127,125,122,124,126,0
3131,130,125,128,130,130,129,123,125,0
3135,132,127,128,128,129,128,129,127,0
3138,127,127,128,127,128,127,129,128,0
3141,126,128,128,127,128,125,128,128,0
3145,126,127,127,126,127,127,129,127,0
3150,128,127,128,128,130,129,130,128,0
3156,126,126,126,127,129,127,127,128,0
3160,128,127,128,127,127,122,128,126,0
3165,126,125,127,125,128,127,128,127,0
3168,126,127,127,127,128,125,128,127,0
3170,126,128,125,129,124,126,127,128,0
3175,128,127,127,128,126,126,122,126,0
3178,130,128,126,131,131,130,124,126,0
3182,130,126,128,127,128,129,129,127,0
3186,126,128,128,129,128,130,129,129,0
3189,128,127,129,127,127,128,130,128,0
3193,126,128,131,127,128,128,129,127,0
3197,129,128,132,127,128,127,130,128,0
3200,131,127,134,127,126,126,128,127,0
3204,127,126,132,128,127,123,127,127,0
3208,126,128,135,127,127,127,129,128,0
3212,129,127,133,129,124,126,126,127,0
3216,128,129,131,127,127,129,128,127,0
3220,128,129,133,129,123,127,127,128,0
3224,127,127,130,131,127,128,123,126,0
3227,129,128,130,130,126,124,128,128,0
3231,128,130,132,128,126,126,129,127,0
3234,128,129,133,129,129,122,128,126,0
3238,127,128,130,128,127,125,127,128,0
3241,127,129,128,129,129,126,130,128,0
3244,127,127,125,131,130,130,129,129,0
3248,127,129,125,132,129,127,129,127,0
3251,127,128,123,132,127,126,127,126,0
3254,127,127,124,137,129,127,128,127,0
3258,129,128,123,137,125,128,128,128,0
3262,128,129,122,137,126,126,128,127,0
3267,127,127,120,133,129,130,123,127,0
3271,130,127,121,130,128,130,124,125,0
3274,128,127,122,126,128,131,128,128,0
3277,127,129,123,125,125,124,128,127,0
3280,127,127,125,123,130,124,128,127,0
3283,126,125,125,122,131,131,131,128,0
3286,126,128,124,121,128,128,129,126,0
3291,127,128,125,120,124,128,127,128,0
3295,125,126,128,118,127,125,127,128,0
3298,126,125,129,119,127,128,127,128,0
3301,127,128,129,120,129,129,127,128,0
3304,127,127,126,120,131,126,128,129,0
3307,127,126,129,124,130,128,123,126,0
3310,131,127,128,122,132,129,124,127,0
3316,130,128,129,120,130,131,129,129,0
3320,127,128,128,120,126,128,130,129,0
3323,126,128,131,120,127,126,129,127,0
3325,128,126,132,121,127,127,129,129,0
3328,128,129,129,123,126,127,128,128,0
3331,127,129,129,124,127,128,129,128,0
3334,127,128,129,123,124,124,129,129,0
3337,128,128,129,125,124,127,124,127,0
3341,129,128,128,128,126,127,126,128,0
3345,128,129,128,126,123,128,129,129,0
3349,128,127,128,126,124,126,126,125,0
3354,129,127,127,125,128,127,126,128,0
3361,128,128,127,126,129,129,128,127,0
3365,127,128,126,129,129,129,128,127,0
3369,127,127,127,128,124,127,124,125,0
3375,129,127,124,130,130,130,124,126,0
3379,131,127,125,126,128,128,128,126,0
3385,128,127,125,126,125,131,129,129,0
3388,128,129,123,126,126,126,130,126,0
3391,129,128,124,126,128,127,127,128,0
3395,127,128,123,126,129,129,130,128,0
3398,126,129,127,127,128,129,129,127,0
3401,127,129,128,126,127,125,125,126,0
3405,127,127,128,130,126,127,125,128,0
3408,128,127,129,125,132,132,132,128,0
3411,128,129,127,129,128,127,129,127,0
3414,127,127,126,125,129,127,129,128,0
3417,127,127,129,126,129,128,128,128,0
3420,127,127,128,129,126,128,128,127,0
3424,128,128,129,130,127,129,128,128,0
3427,128,128,130,130,126,126,126,127,0
3430,128,127,126,130,131,131,124,127,0
3432,128,127,129,131,128,127,129,127,0
3435,130,128,132,128,126,128,127,127,0
3439,126,126,132,127,123,126,128,127,0
3442,129,125,131,127,125,125,128,127,0
3446,125,127,131,129,125,127,127,128,0
3450,127,128,129,129,126,128,127,128,0
3453,128,128,128,129,127,125,127,128,0
3456,127,126,135,127,127,124,126,127,0
3459,129,127,130,132,129,128,123,126,0
3462,126,128,131,127,126,128,128,128,0
3466,127,128,132,128,125,126,127,128,0
3469,126,126,132,126,127,125,128,128,0
3474,127,125,135,127,125,126,128,127,0
3480,127,128,129,130,127,127,128,129,0
3484,127,127,135,131,125,127,126,127,0
3486,128,127,129,131,127,127,125,127,0
3490,127,127,130,131,127,129,126,128,0
3493,128,127,134,128,129,127,129,128,0
3496,127,126,132,128,128,129,128,128,0
3500,128,128,127,127,126,126,129,126,0
3503,129,127,128,127,129,131,131,127,0
3505,127,129,127,128,130,130,129,128,0
3509,128,129,126,129,126,127,128,128,0
3512,127,126,127,131,131,127,124,126,0
3515,129,128,125,131,131,130,125,126,0
3518,128,127,126,129,131,131,130,128,0
3520,126,129,126,128,132,130,130,127,0
3524,126,127,124,127,127,128,128,127,0
3526,129,129,125,125,124,124,125,127,0
3530,129,129,125,127,131,128,127,128,0
3533,126,127,123,126,129,127,128,127,0
3540,126,126,125,128,125,123,127,126,0
3546,126,127,125,128,121,126,126,128,0
3549,128,128,122,129,127,128,127,128,0
3554,127,129,122,128,125,127,126,128,0
3557,126,128,122,127,123,126,126,127,0
3561,129,128,121,130,129,129,122,126,0
3565,131,128,122,130,129,131,122,126,0
3569,128,127,122,126,127,127,127,126,0
3573,128,128,124,129,119,126,130,128,0
3577,127,124,123,126,127,124,128,128,0
3582,126,126,124,129,130,131,129,130,0
3587,127,129,123,128,126,127,127,129,0
3590,127,127,125,127,128,130,127,128,0
3593,127,126,128,127,127,126,128,128,0
3598,127,129,129,130,127,130,126,128,0
3601,128,127,129,131,125,130,132,128,0
3605,126,128,128,126,128,130,131,127,0
3609,124,128,129,127,129,129,132,129,0
3614,128,128,129,127,128,130,131,127,0
3617,127,128,128,128,130,129,130,128,0
3620,128,129,132,128,126,124,128,128,0
3624,124,126,132,127,128,129,130,127,0
3626,127,128,132,128,128,126,129,128,0
3630,128,128,132,129,128,128,129,128,0
3633,127,127,132,129,127,127,128,127,0
3637,129,127,131,131,130,130,125,127,0
3640,129,127,132,130,127,125,130,128,0
3643,128,128,136,128,127,128,128,127,0
3646,127,128,135,127,128,129,129,128,0
3649,128,126,132,130,125,127,125,126,0
3652,128,127,134,127,131,128,128,128,0
3655,128,128,133,127,126,129,128,128,0
3658,128,129,133,128,126,125,126,127,0
3661,125,127,134,128,124,123,127,127,0
3665,128,127,130,128,128,126,127,128,0
3669,128,128,129,128,127,128,128,128,0
3674,127,128,128,128,126,126,127,128,0
3677,128,128,129,127,126,126,128,128,0
3680,129,126,128,127,125,126,127,128,0
3691,127,128,125,128,126,125,127,128,0
3694,128,128,125,128,126,125,128,127,0
3698,128,126,125,128,125,125,127,127,0
3702,126,127,125,128,129,126,127,129,0
3705,128,128,123,128,127,128,128,127,0
3709,127,129,122,129,126,126,126,128,0
3712,126,127,123,128,124,123,123,127,0
3716,130,127,122,129,129,129,124,127,0
3719,130,127,121,130,125,124,127,127,0
3723,129,128,122,127,125,127,128,127,0
3726,127,127,122,127,127,126,127,128,0
3729,128,127,123,128,127,128,126,128,0
3732,128,129,122,128,128,128,127,127,0
3735,128,129,122,127,126,127,127,128,0
3738,126,127,124,127,127,125,127,127,0
3743,127,127,123,126,126,128,126,128,0
3747,127,128,123,128,126,129,127,128,0
3750,127,128,124,127,126,127,128,126,0
3754,130,127,123,129,129,130,124,127,0
3757,129,127,125,129,130,130,123,126,0
3760,129,126,125,124,130,131,130,128,0
3764,127,128,125,125,129,129,129,129,0
3768,127,128,128,129,127,125,126,126,0
3770,128,127,129,128,126,128,130,129,0
3773,127,129,130,128,128,129,130,128,0
3777,128,128,131,127,129,130,131,129,0
3781,128,127,133,128,123,126,129,128,0
3785,126,127,134,127,128,127,130,129,0
3790,127,128,133,129,128,129,130,128,0
3794,127,129,132,128,128,129,129,128,0
3798,128,127,133,128,127,127,129,128,0
3803,127,127,133,128,128,127,130,129,0
3806,127,128,132,127,131,130,130,128,0
3809,128,128,132,128,129,129,130,128,0
3814,126,128,131,129,131,131,125,127,0
3817,128,127,129,129,132,131,126,126,0
3821,128,127,128,130,131,132,126,127,0
3826,128,128,130,128,133,129,130,127,0
3829,127,128,130,128,129,128,129,127,0
3833,129,127,129,126,128,128,129,127,0
3836,127,128,127,128,129,129,129,127,0
3839,128,128,127,129,126,127,128,129,0
3842,125,126,126,128,127,127,129,128,0
3846,125,126,126,126,125,127,128,127,0
3849,130,127,125,131,129,130,124,126,0
3852,127,127,125,127,127,129,130,129,0
3855,127,128,124,125,127,129,125,128,0
3858,128,128,125,129,126,127,124,128,0
3861,128,127,124,129,124,129,128,128,0
3864,128,129,123,128,132,129,129,128,0
3868,126,128,121,125,129,127,130,128,0
3871,126,127,122,125,127,129,124,127,0
3874,129,128,123,129,129,123,128,128,0
3877,129,129,122,127,128,128,127,128,0
3880,128,128,124,129,123,127,127,127,0
3884,127,126,126,126,123,124,126,127,0
3887,128,128,124,128,127,127,127,128,0
3890,128,129,124,128,126,127,126,127,0
3892,128,129,125,126,126,126,126,129,0
3898,127,126,128,126,124,125,126,127,0
3903,127,128,126,126,128,128,128,128,0
3907,127,129,127,129,126,127,127,128,0
3911,127,129,130,127,123,125,127,126,0
3914,129,127,128,130,129,129,123,127,0
3917,130,127,130,128,129,130,125,126,0
3921,124,128,130,128,128,129,130,128,0
3925,127,128,131,127,127,128,132,128,0
3929,126,127,134,125,128,127,129,127,0
3933,126,126,134,128,129,128,130,128,0
3936,126,128,134,129,128,127,128,127,0
3939,126,128,134,128,130,129,130,126,0
3943,127,127,136,128,128,128,129,128,0
3945,126,127,134,128,127,127,129,128,0
3948,127,128,133,128,130,129,129,128,0
3953,127,128,133,127,129,128,129,127,0
3956,126,126,134,128,128,124,124,126,0
3960,129,128,131,130,131,130,125,126,0
3963,129,127,133,125,131,129,129,128,0
3966,128,128,133,127,126,126,128,127,0
3969,127,126,131,126,128,124,128,127,0
3971,127,128,130,126,128,127,128,127,0
3974,126,127,128,128,128,129,128,128,0
3978,128,129,128,127,126,126,126,126,0
3982,128,127,129,127,125,126,127,127,0
3987,127,127,126,129,126,125,125,128,0
3991,128,128,125,128,126,127,127,128,0
3994,127,129,123,127,126,127,127,128,0
3998,127,128,123,128,124,126,126,128,0
4001,127,126,126,131,129,131,123,127,0
4006,130,128,120,130,129,129,125,128,0
4012,129,129,123,127,127,129,128,129,0
4016,127,127,122,127,128,126,127,128,0
4019,128,127,122,127,125,126,127,127,0
4023,130,128,123,128,127,128,127,128,0
4026,128,128,123,127,127,126,126,129,0
4029,126,128,123,128,127,125,128,127,0
4033,127,127,124,128,125,126,126,128,0
4036,128,128,125,127,127,128,127,127,0
4039,127,128,124,128,127,125,128,126,0
4043,128,128,127,127,125,125,126,127,0
4047,129,126,125,130,129,130,123,126,0
4051,129,128,126,130,131,131,125,127,0
4054,127,129,127,126,130,129,130,129,0
4057,126,127,128,127,127,128,129,128,0
4060,127,126,129,127,129,128,129,128,0
4064,127,128,130,127,129,129,129,128,0
4068,127,130,130,128,130,129,130,127,0
4071,126,128,129,128,128,125,129,127,0
4074,127,126,131,128,126,126,129,128,0
4078,127,128,130,128,127,128,129,128,0
4082,128,129,129,128,129,130,130,127,0
4086,127,128,129,127,125,125,130,127,0
4089,130,127,128,129,131,130,126,127,0
4093,129,127,127,130,131,129,125,126,0
4097,128,127,129,127,128,130,129,128,0
4100,128,128,128,126,125,127,128,127,0
4104,128,127,128,127,126,127,129,128,0
4110,126,126,128,126,129,128,128,128,0
4118,128,128,127,127,127,129,128,128,0
4123,127,128,128,127,124,125,125,128,0
4126,128,127,128,127,122,125,126,128,0
4130,128,126,127,127,128,129,128,128,0
4134,128,128,125,127,126,129,127,128,0
4137,127,128,125,128,127,127,128,127,0
4141,129,126,124,130,128,130,123,127,0
4145,130,128,124,129,130,131,124,126,0
4149,130,127,124,126,129,129,128,129,0
4155,128,128,124,127,124,125,127,128,0
4159,127,126,123,128,125,124,126,128,0
4162,126,127,124,126,126,127,128,128,0
4165,128,128,124,129,126,127,128,128,0
4169,127,129,125,128,126,127,128,128,0
4172,127,128,125,128,125,122,128,128,0
4176,128,126,127,128,128,125,128,128,0
4180,128,128,127,128,128,128,128,128,0
4183,127,128,128,127,127,127,128,126,0
4187,127,126,130,129,129,129,124,126,0
4190,129,127,128,129,130,129,124,127,0
4194,128,128,128,129,124,130,132,129,0
4197,127,129,128,127,131,130,130,129,0
4200,126,127,129,125,126,126,129,128,0
4204,127,128,130,125,129,128,128,128,0
4207,128,127,128,128,128,128,128,127,0
4210,129,128,130,128,128,128,128,126,0
4215,127,128,130,128,125,127,128,128,0
4218,127,127,130,128,127,128,129,128,0
4221,128,128,130,127,131,127,128,127,0
4227,127,128,130,126,131,129,128,127,0
4230,127,127,131,127,124,127,128,127,0
4234,127,127,130,130,130,130,124,126,0
4239,131,127,130,131,130,130,126,128,0
4242,127,128,129,127,130,131,131,128,0
4245,127,127,129,127,127,128,130,128,0
4247,127,125,133,126,129,126,129,128,0
4252,127,128,129,128,127,128,128,128,0
4255,128,128,129,128,127,127,128,128,0
4258,128,127,130,128,125,128,124,126,0
4261,130,127,128,129,129,128,123,125,0
4264,130,127,127,129,122,131,128,129,0
4267,128,129,127,127,128,131,129,128,0
4270,127,128,127,126,126,128,131,127,0
4275,127,126,127,124,124,125,128,127,0
4280,127,128,126,126,126,127,127,129,0
4284,127,129,124,128,127,128,128,128,0
4296,126,128,125,126,127,124,127,127,0
4302,127,128,127,127,125,123,127,127,0
4305,127,128,129,128,126,127,127,128,0
4309,127,128,126,128,127,128,127,128,0
4312,127,128,128,127,126,124,126,126,0
4317,126,127,130,130,130,130,124,126,0
4322,129,126,126,131,130,130,124,126,0
4325,130,127,129,127,130,128,129,127,0
4329,126,128,125,128,130,126,129,127,0
4333,125,127,130,125,127,125,129,127,0
4336,127,128,127,126,131,129,130,127,0
4340,128,129,129,129,129,128,129,129,0
4343,126,127,128,129,129,128,128,127,0
4347,126,126,126,130,130,129,123,126,0
4351,130,127,126,131,130,130,126,128,0
4358,127,128,127,128,130,129,130,128,0
4365,126,128,127,125,127,127,128,128,0
4368,127,127,128,126,128,126,129,128,0
4373,127,128,127,126,128,129,128,127,0
4377,128,128,127,126,128,129,128,127,0
4380,127,128,129,128,127,128,127,128,0
4384,127,127,129,128,125,130,123,127,0
4388,130,127,128,129,129,130,124,126,0
4395,125,128,128,128,130,131,129,127,0
4400,128,128,132,126,126,125,129,127,0
4403,126,125,131,128,129,124,129,128,0
4407,130,127,131,127,122,126,128,128,0
4410,128,129,129,126,125,127,128,127,0
4414,127,128,129,128,126,124,127,129,0
4417,126,125,129,129,125,125,125,127,0
4420,129,128,128,129,129,129,124,126,0
4426,128,127,128,125,128,128,129,128,0
4429,128,128,129,127,127,126,128,128,0
4433,129,127,129,127,124,124,128,127,0
4436,128,128,128,126,128,126,128,128,0
4440,128,128,127,127,126,126,127,127,0
4443,127,128,126,128,126,126,127,128,0
4447,128,127,127,128,124,125,126,128,0
4451,127,126,125,127,127,126,128,128,0
4455,129,128,126,129,127,128,127,128,0
4458,127,128,125,128,127,128,127,127,0
4461,127,127,126,127,126,126,127,128,0
4465,127,126,127,126,126,125,127,128,0
4470,129,128,127,128,124,127,127,128,0
4475,129,128,126,128,128,128,128,127,0
4479,127,127,126,128,126,124,125,127,0
4483,130,127,124,130,129,129,124,127,0
4486,130,127,126,130,129,131,125,127,0
4488,128,128,126,128,130,129,130,128,0
4491,126,128,127,127,124,125,128,128,0
4494,127,127,129,127,125,128,128,127,0
4499,128,128,128,128,129,129,128,128,0
4502,127,130,128,127,127,128,128,128,0
4505,127,128,129,127,126,125,128,127,0
4509,126,127,129,127,127,127,128,128,0
4514,129,127,128,126,127,128,128,128,0
4517,127,128,127,127,129,128,129,128,0
4520,127,128,128,126,125,126,124,127,0
4525,130,128,127,129,130,129,125,126,0
4528,129,128,127,129,126,126,129,128,0
4533,128,128,129,125,131,129,130,128,0
4536,126,129,128,126,127,127,129,127,0
4540,127,128,130,127,124,126,127,127,0
4543,127,128,128,127,127,128,128,128,0
4546,127,127,130,128,126,128,127,128,0
4550,128,128,127,128,125,127,127,127,0
4554,126,127,129,127,123,128,128,128,0
4557,128,126,125,131,129,131,123,126,0
4562,131,128,125,130,122,129,129,128,0
4566,127,128,127,127,124,125,127,127,0
4570,128,127,127,127,127,127,128,128,0
4573,126,126,127,126,129,128,128,129,0
4577,127,127,126,128,127,127,128,128,0
4582,127,128,126,128,128,127,129,129,0
4587,127,127,127,127,128,126,124,126,0
4593,129,127,126,132,130,129,124,127,0
4598,128,127,127,126,127,128,129,128,0
4603,127,128,128,128,127,126,127,127,0
4607,127,127,128,128,128,127,129,128,0
4612,128,127,128,127,129,127,129,129,0
4616,127,128,127,128,128,128,129,127,0
4620,126,129,127,130,128,127,128,127,0
4627,126,127,128,126,126,126,125,126,0
4636,130,128,127,127,128,128,129,128,0
4631,130,127,127,131,128,130,125,127,0
4640,126,128,128,127,129,129,129,128,0
4644,126,127,128,124,128,127,128,127,0
4650,127,128,129,127,128,128,129,128,0
4654,127,128,128,126,127,128,129,128,0
4658,128,129,127,126,127,128,128,128,0
4661,127,127,129,126,124,126,128,127,0
4664,127,126,130,127,127,127,128,128,0
4667,128,128,127,127,128,128,130,127,0
4671,128,128,128,127,128,126,128,127,0
4676,126,127,128,128,130,128,124,126,0
4679,129,128,126,129,129,128,124,126,0
4682,130,126,128,126,128,128,129,128,0
4685,128,128,125,127,127,127,128,127,0
4688,128,128,127,127,128,126,128,127,0
4691,127,127,127,127,129,127,128,128,0
4695,127,128,126,128,128,127,128,128,0
4698,127,128,126,128,126,128,128,128,0
4700,128,127,128,127,126,124,126,128,0
4704,128,125,128,127,127,128,127,127,0
4709,128,128,126,127,127,129,128,127,0
4714,128,129,126,127,125,127,128,127,0
4717,127,128,127,127,124,125,128,127,0
4722,127,127,128,127,128,127,128,127,0
4724,127,126,127,127,128,128,127,128,0
4727,128,127,128,127,128,128,128,127,0
4730,128,128,128,127,122,124,128,127,0
4735,128,127,131,129,130,130,123,126,0
4738,130,127,128,129,130,130,124,124,0
4742,126,128,129,125,130,129,128,128,0
4745,127,127,129,126,129,127,128,128,0
4748,127,127,130,127,128,127,129,127,0
4751,127,127,130,127,128,128,129,127,0
4754,127,127,128,128,126,129,128,128,0
4758,127,127,129,127,128,127,129,127,0
4762,127,128,130,126,126,126,126,126,0
4766,129,127,129,130,128,130,124,127,0
4769,129,127,129,128,127,128,129,129,0
4772,126,129,128,126,128,127,128,128,0
4775,126,128,128,126,128,127,128,128,0
4778,127,128,128,127,128,126,128,127,0
4781,127,129,126,127,127,128,129,127,0
4787,127,128,127,127,124,126,128,127,0
4791,127,128,127,127,126,126,129,128,0
4795,127,128,128,129,125,128,125,126,0
4798,128,126,127,129,124,129,129,128,0
4802,127,129,126,127,128,128,127,128,0
4807,126,128,127,127,129,128,129,129,0
4809,127,125,127,130,131,131,124,127,0
4812,130,127,125,128,125,129,128,128,0
4816,128,128,127,127,128,128,128,128,0
4822,126,128,127,127,128,127,128,129,0
4826,127,128,127,127,129,128,128,129,0
4829,128,128,127,128,129,130,129,127,0
4833,128,128,126,127,125,126,127,129,0
4836,126,127,128,128,124,128,124,126,0
4839,130,126,126,130,130,130,124,126,0
4843,126,128,128,128,128,130,128,128,0
4846,126,129,127,127,127,127,127,128,0
4849,126,128,128,126,127,126,127,128,0
4853,128,128,129,127,127,125,128,127,0
4856,128,128,128,128,129,128,129,127,0
4862,127,127,130,127,127,123,128,127,0
4858,127,128,128,128,128,127,129,127,0
4867,127,127,127,131,130,129,124,126,0
4870,130,128,130,128,129,130,129,128,0
4876,128,129,127,126,126,126,127,128,0
4879,127,127,129,127,126,126,128,128,0
4882,126,127,128,126,128,127,128,128,0
4885,128,127,128,127,127,128,129,129,0
4889,127,128,126,127,129,128,129,128,0
4893,126,128,127,127,127,127,127,128,0
4897,127,127,128,128,128,130,124,127,0
4901,131,127,126,130,129,130,127,127,0
4906,127,128,126,127,128,129,128,128,0
4909,127,128,126,126,127,125,128,128,0
4912,126,127,127,127,129,127,129,128,0
4916,126,128,126,127,129,130,129,128,0
4918,127,129,126,127,127,128,130,127,0
4921,126,127,127,128,123,125,124,127,0
4927,129,128,125,129,130,128,124,127,0
4933,129,128,125,129,123,129,129,129,0
4937,128,129,126,126,127,129,130,128,0
4940,127,128,125,124,128,127,129,128,0
4944,126,128,126,125,128,126,128,128,0
4947,127,129,126,125,128,127,128,128,0
4951,128,129,124,128,127,129,128,128,0
4955,127,128,126,127,125,125,127,127,0
4959,127,126,127,130,128,127,123,126,0
4963,129,127,125,130,129,127,128,128,0
4967,127,127,124,127,128,129,128,127,0
4969,127,128,125,126,127,128,128,128,0
4972,127,127,126,125,127,127,128,128,0
4975,128,127,128,129,127,127,128,128,0
4978,127,128,129,129,126,129,128,128,0
4981,127,128,130,128,127,127,127,128,0
4985,127,126,132,128,123,126,128,127,0
4988,126,127,132,128,129,127,128,128,0
4992,128,128,131,129,130,130,130,128,0
4996,127,129,132,129,128,127,128,125,0
4999,130,127,130,130,129,128,125,126,0
5002,129,127,130,130,129,129,126,128,0
5006,127,129,130,128,128,129,131,128,0
5010,126,129,130,124,127,127,129,129,0
5014,127,128,129,125,127,125,128,128,0
5017,127,128,128,126,129,128,128,128,0
5021,128,128,127,128,128,127,128,128,0
5025,128,128,127,127,126,127,127,128,0
5028,127,127,125,127,126,126,128,127,0
5032,131,127,125,130,128,130,123,126,0
5035,128,126,124,128,130,130,128,128,0
5040,127,127,124,126,128,128,127,128,0
5047,126,126,125,125,127,128,128,127,0
5051,126,125,126,126,128,128,127,128,0
5054,127,128,126,129,126,129,128,128,0
5058,129,128,125,127,125,128,126,128,0
5061,127,126,126,130,129,130,123,126,0
5065,129,127,126,131,129,130,124,127,0
5074,129,126,126,129,129,132,129,129,0
5078,127,128,125,126,127,128,130,128,0
5081,127,128,129,125,126,126,129,128,0
5084,126,127,129,125,129,128,130,128,0
5086,127,128,128,125,128,128,129,128,0
5089,126,129,127,126,128,127,128,127,0
5093,127,128,131,125,125,124,127,127,0
5096,131,127,130,130,130,129,123,126,0
5100,129,128,130,127,132,130,131,128,0
5104,126,129,129,127,130,128,130,128,0
5110,127,129,130,127,131,125,128,127,0
5113,128,128,128,128,127,128,125,127,0
5117,129,127,129,127,132,132,131,128,0
5121,127,128,128,124,130,129,130,128,0
5124,126,128,128,127,129,129,129,128,0
5128,126,124,129,128,130,130,130,128,0
5131,126,127,127,126,130,129,128,128,0
5135,127,129,127,128,128,128,128,128,0
5139,127,127,129,128,129,124,122,126,0
5142,130,127,126,131,130,130,124,127,0
5146,128,127,126,128,130,131,131,129,0
5149,126,128,126,126,129,129,128,129,0
5153,125,128,127,127,128,128,127,127,0
5159,130,128,127,129,131,131,124,127,0
5163,130,129,127,128,123,130,129,129,0
5167,128,129,127,127,130,130,130,129,0
5171,128,129,127,126,123,126,129,128,0
5174,127,127,127,128,130,132,125,127,0
5177,131,128,125,129,129,131,125,127,0
5182,128,129,124,126,130,129,131,129,0
5185,127,129,124,126,129,127,130,128,0
5189,129,128,123,128,132,132,127,128,0
5194,128,128,123,129,128,130,127,129,0
5198,128,128,124,126,133,132,133,129,0
5201,126,129,123,126,130,129,131,128,0
5205,128,128,122,128,133,131,126,128,0
5208,129,128,121,129,132,129,127,130,0
5212,128,129,124,125,128,131,131,129,0
5215,127,128,126,125,129,128,131,128,0
5218,127,128,126,126,129,128,131,127,0
5222,126,128,125,126,130,130,130,128,0
5225,128,129,125,126,126,128,130,127,0
5229,127,130,126,127,124,125,127,127,0
5232,127,127,126,127,129,127,128,129,0
5235,128,127,125,127,129,129,129,128,0
5239,127,127,126,126,128,129,129,128,0
5242,127,128,128,126,125,126,125,127,0
5246,126,126,127,128,127,127,125,126,0
5250,129,128,127,129,129,130,124,126,0
5253,126,128,128,126,128,128,129,127,0
5257,127,128,128,128,129,128,128,129,0
5260,127,127,129,127,127,123,127,127,0
5264,127,129,130,128,122,128,128,127,0
5268,128,130,128,129,127,127,131,127,0
5274,127,128,128,128,128,127,126,129,0
5284,127,125,128,129,128,127,127,127,0
5289,130,127,126,130,131,131,124,127,0
5293,129,127,129,128,128,128,128,126,0
5297,128,128,127,126,126,125,128,127,0
5300,128,128,129,128,123,123,128,127,0
5303,126,126,127,127,128,128,129,127,0
5307,127,128,126,127,129,127,130,128,0
5310,126,127,125,127,127,128,128,128,0
5314,127,128,126,125,124,121,129,126,0
5318,127,127,127,127,127,127,129,128,0
5323,128,128,127,128,125,126,128,127,0
5326,126,127,125,127,126,125,128,127,0
5333,127,127,127,128,124,126,129,127,0
5336,128,127,130,128,125,125,127,127,0
5339,128,127,129,129,126,127,127,126,0
5343,129,127,130,129,125,126,127,127,0
5346,128,126,132,128,122,124,125,127,0
5349,129,126,133,129,122,124,127,126,0
5353,129,127,135,129,126,126,127,127,0
5357,127,127,134,129,126,127,127,128,0
5361,128,126,135,127,122,123,126,127,0
5364,129,125,136,129,123,126,128,126,0
5369,128,127,136,130,129,126,128,127,0
5373,126,126,136,129,128,127,125,128,0
5377,128,125,137,128,124,125,126,127,0
5380,129,123,136,128,125,122,126,125,0
5385,129,128,134,129,128,124,125,126,0
5389,128,126,133,128,125,127,127,127,0
5393,127,128,132,129,122,125,122,126,0
5399,130,127,129,130,128,129,123,127,0
5404,127,128,128,127,128,127,127,126,0
5410,128,128,126,128,129,130,128,128,0
5414,130,126,127,128,126,125,125,127,0
5418,127,127,126,125,126,125,125,127,0
5422,127,128,126,127,126,125,125,128,0
5425,128,128,124,127,124,126,125,127,0
5428,128,128,125,128,125,125,125,127,0
5432,128,127,125,127,125,127,126,127,0
5435,128,127,125,127,125,126,126,128,0
5438,127,128,123,127,124,127,128,127,0
5441,129,128,125,127,123,125,126,126,0
5445,126,126,125,128,126,125,127,127,0
5448,126,127,125,127,127,127,127,126,0
5452,127,126,125,128,123,125,126,127,0
5455,128,127,126,127,124,123,126,126,0
5458,128,126,128,127,125,124,127,126,0
5462,127,125,128,128,125,127,127,125,0
5466,128,126,128,127,126,126,130,127,0
5468,127,126,130,127,128,125,128,128,0
5472,128,125,131,125,123,123,128,126,0
5475,129,127,130,127,126,126,127,127,0
5478,129,127,129,128,126,127,128,127,0
5481,128,127,130,126,124,124,127,127,0
5484,127,126,131,125,128,126,128,127,0
5487,128,126,129,126,128,127,128,127,0
5490,128,128,128,127,128,128,129,128,0
5496,128,128,129,126,126,126,129,128,0
5501,126,127,131,126,126,124,130,127,0
5504,127,127,130,126,126,127,129,128,0
5508,126,128,129,127,127,127,130,128,0
5514,127,128,129,128,126,127,128,128,0
5519,127,127,129,126,125,124,128,127,0
5522,129,126,130,127,125,126,127,127,0
5525,128,128,129,127,126,125,128,126,0
5530,127,128,129,127,125,126,129,127,0
5533,127,126,129,127,124,125,128,127,0
5537,127,126,129,126,123,126,128,127,0
5539,128,127,128,126,126,127,128,127,0
5544,127,126,127,127,126,125,128,127,0
5547,129,127,128,126,121,124,126,126,0
5550,128,127,127,127,120,126,128,127,0
5553,127,128,127,127,125,128,127,127,0
5556,128,127,126,127,126,126,128,126,0
5559,127,128,126,127,124,128,123,125,0
5563,131,127,126,129,127,128,124,126,0
5566,131,127,126,126,126,127,129,128,0
5569,129,128,125,126,125,126,128,128,0
5572,128,127,125,126,128,128,130,128,0
5575,127,127,124,126,128,128,129,129,0
5578,129,129,124,128,128,128,130,128,0
5581,127,128,124,127,126,126,129,127,0
5585,126,127,124,126,124,129,125,126,0
5592,130,127,123,130,131,131,126,126,0
5596,131,127,123,129,125,127,128,126,0
5600,128,129,125,126,130,131,132,129,0
5604,126,128,126,127,126,129,130,128,0
5607,126,126,128,126,127,129,130,128,0
5610,127,129,127,126,129,130,131,128,0
5614,127,129,128,126,127,128,128,127,0
5618,129,129,127,128,130,131,124,126,0
5623,129,128,130,129,128,131,125,127,0
5628,129,127,128,130,130,131,124,126,0
5634,127,128,128,127,130,131,129,129,0
5639,124,128,127,127,130,128,129,130,0
5642,125,130,128,127,130,128,128,130,0
5648,126,130,128,127,129,129,128,129,0
5653,126,129,127,128,130,129,128,130,0
5657,127,129,126,130,129,131,125,128,0
5662,129,129,127,130,131,129,124,127,0
5666,130,129,127,131,132,130,125,130,0
5669,126,131,125,128,131,131,130,129,0
5673,125,130,126,127,131,129,129,129,0
5676,127,129,126,126,128,129,129,129,0
5679,127,128,127,128,126,129,128,129,0
5683,127,129,126,128,129,130,129,129,0
5686,126,129,127,128,129,128,128,129,0
5690,127,127,126,130,131,128,124,127,0
5696,129,128,126,130,130,129,124,127,0
5700,127,130,127,127,130,130,129,129,0
5704,127,129,126,127,130,129,127,128,0
5707,125,128,127,126,126,128,123,127,0
5711,129,127,126,129,131,131,123,127,0
5714,129,127,124,126,130,130,128,128,0
5717,127,129,125,127,129,129,127,128,0
5720,126,128,125,126,131,128,127,128,0
5724,126,128,125,127,130,128,128,128,0
5727,127,129,127,127,130,130,128,128,0
5731,127,129,125,128,126,125,127,128,0
5734,126,126,127,129,131,129,124,126,0
5739,129,127,125,131,131,131,124,126,0
5746,130,127,128,126,129,129,129,128,0
5750,129,127,128,125,127,129,131,129,0
5756,127,128,129,127,129,127,129,128,0
5761,126,126,129,125,127,129,128,128,0
5765,128,128,129,126,128,129,130,129,0
5768,127,128,127,125,126,128,130,128,0
5772,126,127,129,130,130,129,125,127,0
5776,130,127,128,129,132,129,124,126,0
5779,130,127,131,127,131,131,131,128,0
5783,127,129,129,128,129,129,130,128,0
5786,126,128,129,129,126,126,125,126,0
5790,129,127,128,131,130,128,125,129,0
5799,128,128,127,127,128,129,127,129,0
5794,126,128,128,127,128,130,128,129,0
5802,126,128,128,127,128,126,129,128,0
5805,127,128,127,127,126,127,126,128,0
5808,128,128,127,128,126,127,127,127,0
5811,127,128,127,128,128,130,128,129,0
5815,126,126,124,129,125,127,122,127,0
5818,130,125,125,130,128,129,122,127,0
5821,126,128,127,128,128,129,128,129,0
5824,127,128,126,128,126,126,129,128,0
5827,127,127,126,126,127,126,127,128,0
5831,128,124,126,126,124,127,127,128,0
5835,127,128,127,127,125,127,128,128,0
5838,127,127,127,128,128,130,128,129,0
5841,123,125,129,128,126,123,126,128,0
5847,127,127,130,128,129,128,128,128,0
5851,127,127,129,128,130,130,130,128,0
5854,128,129,130,126,125,128,126,128,0
5858,128,126,131,128,125,122,124,126,0
5862,130,127,128,130,131,130,123,127,0
5867,129,129,129,131,129,130,124,127,0
5871,128,129,129,127,128,129,129,130,0
5874,126,130,128,126,129,127,128,129,0
5879,126,129,129,126,129,127,129,129,0
5882,126,129,128,126,128,130,129,129,0
5887,128,129,127,127,129,129,129,129,0
5890,126,129,127,129,137,137,123,129,0
5894,130,128,123,130,137,136,123,127,0
5898,130,129,126,129,132,131,127,128,0
5901,128,128,126,125,132,133,131,129,0
5906,126,129,125,127,130,129,130,128,0
5909,127,128,127,125,130,128,129,128,0
5914,126,126,127,126,128,130,130,128,0
5918,127,129,128,126,126,127,127,127,0
5939,127,128,129,126,127,125,128,127,0
5943,126,126,129,126,126,125,128,127,0
5947,127,127,130,127,127,126,127,127,0
5952,128,127,130,127,127,126,127,126,0
5955,128,127,129,127,126,125,127,127,0
6008,127,127,130,127,125,126,127,127,0
6013,128,126,132,128,125,127,127,127,0
6018,127,127,131,128,126,129,128,127,0
6022,128,127,130,128,126,126,128,126,0
6026,127,126,132,128,126,126,128,128,0
6079,128,126,132,129,127,127,130,127,0
6095,128,125,131,126,125,126,126,128,0
6088,128,126,133,129,126,130,127,127,0
6100,127,123,132,128,126,125,125,127,0
6112,128,124,131,126,125,125,128,127,0
6116,129,127,128,127,125,126,128,127,0
6120,127,127,128,129,128,127,128,128,0
6124,126,127,130,128,123,123,125,127,0
6127,126,126,128,129,128,125,128,127,0
6131,127,127,126,128,125,126,126,127,0
6134,127,128,125,128,124,124,126,128,0
6137,128,127,126,127,124,124,125,127,0
6140,127,127,125,127,125,125,126,127,0
6144,127,127,126,129,125,127,125,127,0
6147,128,127,127,128,125,125,126,126,0
6150,129,127,128,127,124,125,127,126,0
6154,128,127,127,128,124,124,126,127,0
6157,128,126,128,128,124,127,128,127,0
6160,128,127,127,128,124,124,127,126,0
6163,129,127,129,125,122,122,126,126,0
6167,129,126,129,125,125,124,127,126,0
6170,129,127,130,126,121,126,127,126,0
6174,129,126,130,127,125,126,127,126,0
6177,128,127,130,126,125,124,127,126,0
6180,128,126,129,124,123,124,127,126,0
6184,129,126,130,126,124,125,126,126,0
6187,128,127,130,126,124,126,127,126,0
6190,128,128,127,126,124,124,127,127,0
6194,128,126,130,126,124,124,127,126,0
6196,129,127,128,127,127,127,128,127,0
6199,129,128,127,127,128,128,129,127,0
6203,128,128,126,126,124,124,128,126,0
6210,127,127,125,126,126,125,128,127,0
6215,129,127,125,127,127,128,129,127,0
6220,127,128,123,127,126,126,130,127,0
6224,127,127,126,126,127,125,129,126,0
6231,128,126,126,126,126,124,126,125,0
6236,130,127,124,131,129,130,124,124,0
6240,126,128,126,127,127,130,129,127,0
6243,128,127,127,126,127,127,129,126,0
6247,126,126,128,126,125,124,126,126,0
6280,129,126,127,130,126,127,126,128,0
6291,129,128,127,126,129,129,130,128,0
6296,128,128,128,125,126,128,129,127,0
6301,127,125,129,128,131,130,124,125,0
6307,132,128,129,130,131,131,125,126,0
6347,129,127,129,128,128,129,129,127,0
6352,127,128,129,127,127,126,129,127,0
6357,127,127,131,127,128,123,130,127,0
6362,127,128,132,126,131,129,129,127,0
6370,127,130,130,128,128,128,129,126,0
6366,128,128,130,126,129,130,129,128,0
6374,131,126,130,131,130,128,125,125,0
6380,130,126,131,130,131,130,126,126,0
6384,128,127,129,128,132,130,130,129,0
6387,126,129,129,127,130,127,130,129,0
6391,125,128,129,128,131,127,132,128,0
6394,126,129,129,127,130,129,129,128,0
6399,127,129,128,127,128,129,129,129,0
6402,126,128,127,127,127,127,128,129,0
6406,128,127,128,130,128,129,123,126,0
6411,129,127,123,130,129,129,124,126,0
6414,130,129,122,127,130,130,129,129,0
6417,127,129,124,127,129,129,129,129,0
6422,127,130,123,126,128,127,128,128,0
6428,127,130,122,126,127,128,128,128,0
6431,127,130,123,127,128,129,127,129,0
6434,126,129,121,127,128,129,127,129,0
6438,127,129,124,127,122,127,121,127,0
6441,131,128,122,130,128,130,121,127,0
6444,131,128,123,128,126,130,127,130,0
6447,128,130,120,126,129,128,127,130,0
6451,127,130,122,125,126,125,127,129,0
6454,126,129,123,126,129,129,128,129,0
6457,127,129,122,127,131,132,129,128,0
6460,126,129,122,129,129,128,129,128,0
6464,126,129,121,131,129,130,124,125,0
6469,129,128,121,132,132,131,124,127,0
6473,130,128,120,127,130,130,127,128,0
6476,126,129,121,128,129,129,128,129,0
6481,125,128,123,126,128,127,128,128,0
6485,125,128,124,127,130,127,129,129,0
6488,128,128,124,127,131,131,130,128,0
6491,128,128,125,127,129,129,130,129,0
6495,127,127,128,126,129,130,126,127,0
6498,130,127,128,129,130,131,125,127,0
6502,130,127,129,130,125,130,129,128,0
6506,128,127,129,126,128,129,130,128,0
6509,126,128,132,126,128,125,130,128,0
6512,125,127,133,130,130,129,126,127,0
6516,129,126,134,128,132,129,131,128,0
6519,127,128,134,128,128,129,129,129,0
6523,127,128,135,127,127,127,130,125,0
6530,129,127,134,127,129,130,131,129,0
6526,128,127,134,129,129,129,125,127,0
6535,127,127,136,127,130,131,131,129,0
6548,126,128,134,125,126,129,131,129,0
6552,127,127,135,127,127,129,130,129,0
6555,127,128,134,128,128,128,127,129,0
6559,128,128,131,128,127,131,129,129,0
6562,126,126,133,127,125,125,127,127,0
6565,128,127,128,131,131,130,122,127,0
6568,129,127,130,131,129,126,130,129,0
6573,127,128,128,129,128,129,129,128,0
6576,126,128,127,128,128,126,127,129,0
6584,127,128,126,128,127,129,128,129,0
6580,126,127,127,128,126,127,129,128,0
6609,127,129,128,128,126,127,129,128,0
6613,127,127,125,128,128,126,124,126,0
6617,130,128,126,129,127,127,122,126,0
6621,130,128,124,128,125,129,129,128,0
6625,128,128,125,127,126,129,130,129,0
6628,126,129,123,126,126,125,126,128,0
6632,128,128,126,126,126,123,128,127,0
6635,127,128,126,128,129,127,127,129,0
6638,127,128,123,127,128,130,126,129,0
6642,127,128,125,125,123,124,127,130,0
6645,128,125,126,127,127,127,129,128,0
6648,127,127,126,130,128,128,124,127,0
6651,128,125,126,129,130,131,128,128,0
6654,128,129,128,126,126,128,129,127,0
6657,126,125,127,127,131,127,126,127,0
6660,130,126,127,130,132,131,124,126,0
6664,126,128,127,129,132,132,130,128,0
6668,126,128,127,128,129,130,131,127,0
6674,126,127,128,128,123,126,130,127,0
6678,128,125,127,131,131,131,124,126,0
6681,127,128,129,128,130,131,129,128,0
6684,126,127,129,128,129,129,129,128,0
6687,127,127,131,126,128,129,130,127,0
6690,126,126,132,127,129,129,130,128,0
6695,128,125,133,127,127,130,130,128,0
6700,127,128,131,127,128,126,127,127,0
6709,127,128,133,126,126,124,125,126,0
6716,130,127,131,129,128,129,123,126,0
6720,130,127,130,129,128,131,129,128,0
6728,126,126,130,128,127,128,128,128,0
6731,127,128,129,126,129,124,130,128,0
6735,127,127,131,126,125,125,129,128,0
6738,127,127,132,127,127,130,128,128,0
6742,128,128,133,127,126,129,129,128,0
6745,128,127,129,128,125,125,124,126,0
6748,129,126,129,128,126,128,125,126,0
6752,128,127,132,126,128,130,128,129,0
6755,128,129,130,127,127,129,129,127,0
6760,128,128,130,127,126,127,129,127,0
6764,127,128,128,127,128,123,129,126,0
6768,127,128,127,127,129,129,127,128,0
6771,127,128,127,126,128,127,128,127,0
6774,128,127,126,128,127,124,122,126,0
6778,129,128,124,131,130,128,122,125,0
6781,129,124,123,127,129,129,129,128,0
6784,128,127,123,128,128,127,129,128,0
6791,126,128,124,128,128,126,127,128,0
6795,126,128,126,124,123,125,128,127,0
6801,127,126,125,129,129,127,128,127,0
6806,128,128,125,127,126,127,127,127,0
6809,128,128,129,125,125,126,128,128,0
6812,127,125,129,127,126,127,128,127,0
6815,126,127,127,128,125,130,127,128,0
6818,127,128,126,126,127,128,128,128,0
6822,127,128,128,127,127,128,128,128,0
6826,127,127,129,128,126,127,127,128,0
6831,127,128,127,127,125,128,128,128,0
6837,129,128,129,127,128,129,127,128,0
6840,128,128,128,126,122,126,127,127,0
6844,127,127,130,127,124,125,127,127,0
6847,127,127,128,127,127,126,127,128,0
6850,129,128,127,128,128,128,127,127,0
6854,126,129,125,128,126,125,123,126,0
6857,130,128,125,130,130,129,124,126,0
6860,130,128,125,131,131,127,128,127,0
6864,129,129,127,128,129,128,128,127,0
6867,126,128,129,127,128,127,129,127,0
6871,127,127,130,127,123,126,127,126,0
6874,127,128,129,127,126,127,128,127,0
6877,128,127,128,128,126,126,128,127,0
6882,128,127,129,126,127,126,125,128,0
6885,126,126,128,125,124,125,127,128,0
6889,127,128,128,127,128,128,128,127,0
6892,128,128,126,127,125,128,127,127,0
6896,126,128,126,127,126,128,128,127,0
6899,128,127,126,126,124,127,128,128,0
6902,126,128,124,127,127,128,127,127,0
6905,128,127,126,128,128,129,128,127,0
6911,127,127,125,128,127,127,128,126,0
6919,127,128,128,128,129,126,126,126,0
6923,128,126,130,127,125,128,127,127,0
6926,128,126,131,128,129,127,128,127,0
6931,129,127,132,128,128,127,128,127,0
6934,129,126,132,128,125,128,123,125,0
6937,130,126,131,130,129,128,124,126,0
6941,130,126,129,126,129,129,128,129,0
6944,127,129,129,127,126,128,129,129,0
6947,128,128,128,126,127,127,129,129,0
6951,127,128,130,126,126,127,129,128,0
6955,128,128,127,128,128,129,128,128,0
6958,127,129,128,127,126,127,129,127,0
6962,126,129,128,126,126,126,127,128,0
6966,126,127,128,127,128,127,129,127,0
6969,127,128,127,128,129,129,129,128,0
6972,127,128,127,128,129,128,130,128,0
6974,127,128,128,126,124,124,123,126,0
6977,130,126,126,129,129,128,124,126,0
6981,130,127,129,127,128,128,129,128,0
6984,128,129,126,127,129,128,128,128,0
6989,127,128,126,127,129,127,129,128,0
6992,127,128,127,126,127,126,129,128,0
6996,127,129,128,128,127,129,128,127,0
6999,127,129,126,127,127,128,128,127,0
7002,127,128,127,127,124,126,128,127,0
7008,127,126,127,129,128,128,123,126,0
7012,129,127,126,130,129,129,124,127,0
7016,127,128,127,127,126,127,127,128,0
7021,127,127,126,126,127,127,128,128,0
7028,126,126,125,127,128,126,127,128,0
7034,128,128,126,127,125,128,127,128,0
7037,128,128,124,128,127,129,127,128,0
7041,127,127,123,128,125,125,127,127,0
7044,129,126,122,130,129,128,125,127,0
7048,130,127,122,130,128,128,125,127,0
7052,127,128,118,126,127,128,129,129,0
7055,126,128,119,125,128,127,128,128,0
7058,125,127,119,125,126,125,128,129,0
7062,125,127,120,127,129,128,128,128,0
7065,126,128,118,128,127,129,129,129,0
7069,126,129,119,128,127,126,129,128,0
7073,126,128,120,125,127,126,128,128,0
7075,127,129,121,128,128,127,127,128,0
7078,127,129,121,128,127,129,127,129,0
7081,126,129,121,128,128,127,128,128,0
7084,127,127,124,127,127,127,128,129,0
7086,126,128,123,128,128,129,128,128,0
7089,128,128,124,128,127,129,129,128,0
7092,128,129,126,128,127,128,127,128,0
7095,127,126,129,130,128,129,123,126,0
7099,131,127,131,130,129,130,124,125,0
7106,129,127,131,127,128,129,129,128,0
7109,128,127,137,127,127,128,129,128,0
7113,128,126,139,125,126,127,128,128,0
7116,128,126,143,128,128,130,129,128,0
7120,128,127,145,128,127,128,130,128,0
7124,129,127,147,128,127,128,129,128,0
7128,128,125,151,128,126,125,131,128,0
7132,127,125,149,129,129,128,129,128,0
7136,128,126,148,129,129,129,130,128,0
7142,127,126,146,129,130,128,131,128,0
7145,127,125,145,129,126,126,128,126,0
7147,130,125,143,131,130,129,126,127,0
7150,128,128,139,127,129,129,129,128,0
7154,127,128,136,128,129,127,131,128,0
7156,127,128,134,126,128,128,130,128,0
7160,126,127,131,126,129,127,128,128,0
7163,126,129,127,127,129,129,131,128,0
7167,127,130,125,127,128,128,128,127,0
7170,127,129,123,126,122,126,122,126,0
7173,130,128,120,128,128,129,122,126,0
7176,130,125,116,126,127,129,126,127,0
7179,127,129,113,125,127,128,126,127,0
7182,127,128,114,125,124,125,126,127,0
7186,127,127,115,126,126,129,126,127,0
7189,128,128,116,127,126,128,127,127,0
7192,128,128,120,128,126,127,127,128,0
7195,127,127,123,127,124,125,122,127,0
7198,130,127,126,131,127,127,124,125,0
7201,130,128,128,130,125,128,129,127,0
7204,129,129,130,126,129,127,130,128,0
7213,128,128,131,126,129,126,131,128,0
7216,127,129,131,126,129,126,131,127,0
7219,127,129,129,126,129,127,130,127,0
7223,128,130,127,128,129,126,130,128,0
7226,126,129,124,126,129,125,129,127,0
7230,129,128,123,131,130,127,124,126,0
7233,129,127,121,129,127,127,129,129,0
7238,127,129,119,128,129,127,129,128,0
7243,127,129,119,126,128,125,129,129,0
7248,125,128,119,127,130,125,128,129,0
7251,126,128,115,129,131,128,127,128,0
7254,126,129,115,129,130,129,128,128,0
7258,126,129,115,129,127,126,127,128,0
7261,125,127,117,126,129,126,126,128,0
7265,126,127,116,129,129,129,125,128,0
7268,126,128,117,129,128,129,125,127,0
7272,126,127,119,128,128,128,125,127,0
7275,128,125,121,130,128,129,121,125,0
7278,129,125,123,124,128,129,125,127,0
7281,127,127,122,127,127,129,124,127,0
7284,126,127,124,127,126,128,125,127,0
7287,126,127,125,126,125,127,125,127,0
7290,127,126,125,127,126,128,125,127,0
7293,128,127,125,127,126,128,126,126,0
7296,128,127,125,127,125,126,125,127,0
7301,128,124,128,127,125,123,126,126,0
7304,129,126,129,127,126,127,126,127,0
7310,128,127,132,129,124,126,126,127,0
7314,129,127,134,128,125,125,128,127,0
7318,129,127,136,127,123,124,128,128,0
7321,128,127,138,128,127,126,127,127,0
7325,129,126,138,129,125,126,128,127,0
7329,128,127,138,129,127,126,128,127,0
7333,128,127,137,129,124,125,121,125,0
7336,131,126,135,131,125,127,129,127,0
7340,127,128,131,127,127,129,128,128,0
7343,127,129,129,128,127,128,129,127,0
7349,127,129,128,128,128,126,129,128,0
7354,125,128,127,128,129,128,129,127,0
7357,127,128,126,127,126,130,128,127,0
7361,126,128,124,127,127,130,129,128,0
7364,126,128,124,126,125,130,121,126,0
7367,128,126,124,128,127,130,123,125,0
7372,129,127,122,125,128,131,128,128,0
7375,125,128,122,126,128,131,129,128,0
7379,125,128,121,125,127,128,128,125,0
7382,128,127,123,129,131,130,124,126,0
7384,130,127,124,126,130,130,130,129,0
7387,126,128,121,126,128,129,130,129,0
7391,125,128,123,124,128,127,130,128,0
7394,125,127,128,130,130,130,126,127,0
7397,129,128,128,128,129,130,132,129,0
7404,126,129,126,127,129,130,132,128,0
7408,126,129,128,127,122,127,127,127,0
7412,128,127,128,130,130,129,129,127,0
7416,127,127,129,128,130,129,134,129,0
7419,126,130,127,126,130,129,134,130,0
7423,124,129,128,126,129,128,134,127,0
7426,127,128,128,130,131,130,129,126,0
7430,129,129,127,129,131,129,134,129,0
7434,125,132,127,127,131,131,136,130,0
7437,125,129,126,127,131,129,134,129,0
7439,124,129,127,128,131,130,129,126,0
7443,130,128,126,130,128,127,135,130,0
7446,126,129,128,127,131,132,134,130,0
7449,125,128,128,127,129,128,134,129,0
7453,127,127,131,130,132,131,127,127,0
7456,130,126,132,129,129,128,132,129,0
7462,127,128,133,128,131,131,132,129,0
7465,127,127,134,127,130,128,132,128,0
7469,127,127,136,127,129,128,128,129,0
7472,129,126,136,127,131,130,129,129,0
7475,129,127,137,127,131,130,130,128,0
7479,128,127,138,127,128,129,123,126,0
7482,131,125,140,129,131,129,124,126,0
7485,132,125,139,131,129,126,126,129,0
7487,128,127,138,128,128,129,129,129,0
7490,129,127,134,127,129,127,129,128,0
7493,129,127,134,127,126,126,129,128,0
7497,129,127,132,128,128,127,130,129,0
7500,128,127,132,129,128,127,128,129,0
7504,128,128,131,129,128,126,128,129,0
7506,127,128,128,128,128,127,123,127,0
7509,131,127,127,129,129,128,128,128,0
7512,127,128,125,126,128,128,126,129,0
7515,126,128,124,126,127,127,126,128,0
7518,126,128,125,126,127,126,126,127,0
7521,126,128,123,127,126,126,128,128,0
7525,127,128,123,126,125,127,125,129,0
7529,127,128,123,128,125,126,125,128,0
7532,126,127,122,127,124,126,125,129,0
7536,127,127,123,127,125,127,124,128,0
7539,127,127,123,127,123,128,125,128,0
7547,127,127,123,128,124,126,125,128,0
7550,127,126,124,129,123,126,118,126,0
7554,131,126,124,130,124,123,123,128,0
7559,129,127,123,127,125,125,123,129,0
7564,128,127,124,128,125,124,125,129,0
7571,127,127,125,127,125,122,128,128,0
7575,127,127,125,127,126,125,125,128,0
7578,129,128,125,127,123,126,127,128,0
7581,129,127,123,127,126,126,126,128,0
7585,128,128,124,126,124,122,129,127,0
7588,127,127,125,127,125,127,126,127,0
7591,130,128,124,127,125,127,128,129,0
7595,128,128,125,126,123,126,128,127,0
7597,129,126,126,125,119,125,126,127,0
7601,129,127,127,127,122,125,127,127,0
7604,128,127,126,126,125,128,127,127,0
7607,127,127,127,127,125,127,127,127,0
7618,127,125,130,126,125,125,127,127,0
7623,127,123,128,126,127,127,127,126,0
7629,127,126,131,128,128,127,126,127,0
7633,127,127,130,128,129,128,126,126,0
7637,127,127,130,128,128,124,128,126,0
7640,127,126,132,128,130,126,128,126,0
7644,128,127,131,128,130,128,128,126,0
7647,128,128,131,127,130,126,128,127,0
7651,127,127,131,126,127,125,128,127,0
7654,128,126,132,130,131,129,123,126,0
7658,131,127,129,128,128,129,129,127,0
7664,127,128,129,127,129,127,128,127,0
7667,127,127,129,124,128,128,128,126,0
7672,128,126,129,125,129,128,128,127,0
7675,128,127,129,128,128,128,129,127,0
7679,128,127,127,128,129,128,128,128,0
7684,127,127,129,127,126,126,127,127,0
7689,128,126,128,126,127,126,129,126,0
7692,128,127,129,128,128,128,128,128,0
7695,128,128,128,128,128,128,129,127,0
7698,128,127,130,126,126,124,125,125,0
7701,131,126,128,130,130,127,125,126,0
7704,131,126,128,129,124,129,129,127,0
7708,127,128,128,125,130,128,130,127,0
7711,128,128,128,127,130,128,131,127,0
7714,128,128,128,126,128,125,130,127,0
7717,128,129,126,127,130,127,131,127,0
7720,127,129,125,126,130,127,131,127,0
7725,127,129,125,127,129,124,131,127,0
7729,128,128,125,126,126,124,129,126,0
7732,131,128,125,130,129,128,126,126,0
7736,130,128,126,126,128,128,130,127,0
7739,127,128,125,126,128,127,129,127,0
7743,127,126,127,125,129,127,130,127,0
7748,126,125,128,126,130,128,130,127,0
7752,128,127,128,127,130,127,132,127,0
7755,127,128,130,127,129,127,129,127,0
7758,127,127,131,126,126,126,128,127,0
7761,127,126,129,129,129,129,124,126,0
7765,129,128,130,127,128,128,129,128,0
7768,126,128,130,126,126,126,129,127,0
7772,126,128,130,123,127,125,129,127,0
7775,126,128,131,126,129,126,129,129,0
7778,127,128,127,128,128,129,129,128,0
7781,126,129,128,128,126,125,127,128,0
7787,125,128,126,130,129,128,123,126,0
7792,129,127,126,130,129,128,122,127,0
7796,126,127,129,126,126,128,127,128,0
7800,129,128,126,125,126,127,128,129,0
7803,129,125,127,125,127,125,129,128,0
7806,128,126,129,126,127,129,127,127,0
7810,127,128,128,127,126,129,127,128,0
7813,127,128,128,127,127,128,127,128,0
7816,129,127,132,127,124,126,128,128,0
7818,130,127,130,131,129,128,122,127,0
7823,130,127,133,128,129,128,130,130,0
7825,126,129,133,127,128,127,129,129,0
7829,127,128,132,127,127,125,129,128,0
7831,126,127,132,132,128,123,122,128,0
7836,128,128,129,126,128,128,130,128,0
7840,127,129,129,128,130,128,129,129,0
7847,129,127,127,127,126,126,129,129,0
7850,126,127,126,126,128,127,128,128,0
7853,129,128,124,126,128,129,127,129,0
7856,128,130,122,127,129,128,124,128,0
7860,127,127,121,126,123,128,117,126,0
7864,130,127,123,130,130,130,117,127,0
7867,131,128,123,130,126,129,123,129,0
7870,126,126,123,127,127,128,122,127,0
7873,126,127,123,125,127,127,122,129,0
7876,126,128,124,124,127,128,123,128,0
7880,128,128,125,126,127,129,123,128,0
7884,127,129,124,126,127,130,124,129,0
7887,126,128,126,125,126,128,125,129,0
7891,126,126,128,125,123,128,122,128,0
7894,127,128,126,125,126,129,123,128,0
7898,127,129,127,126,128,129,126,129,0
7904,126,128,127,125,126,125,122,126,0
7909,130,127,129,130,128,128,121,127,0
7920,129,128,127,129,128,127,126,129,0
7933,127,127,125,126,127,127,127,129,0
7937,126,129,126,125,127,126,126,129,0
7940,126,126,128,126,127,126,128,129,0
7944,124,127,128,127,126,128,128,129,0
7948,128,128,127,126,127,129,129,128,0
7954,127,128,129,126,128,127,128,129,0
7959,127,128,129,127,129,129,129,128,0
7964,127,128,128,128,130,130,128,128,0
7967,127,129,128,130,130,130,129,128,0
7970,128,128,129,130,129,128,129,128,0
7974,127,127,130,128,129,128,130,128,0
7978,127,126,130,129,129,131,129,128,0
7982,128,129,129,130,129,128,129,128,0
7986,128,128,131,129,128,125,128,128,0
7990,129,126,131,130,130,127,124,126,0
7994,131,126,130,130,129,124,129,128,0
7997,127,128,128,125,129,129,129,129,0
8000,127,129,129,124,128,129,129,129,0
8004,126,128,130,124,127,129,129,128,0
8008,127,128,128,126,126,128,129,128,0
8011,127,129,127,129,127,128,129,127,0
8015,127,128,126,128,127,129,129,129,0
8018,127,128,128,129,127,126,129,128,0
8021,128,128,128,129,128,129,129,127,0
8025,128,128,126,128,126,129,129,128,0
8029,128,128,126,127,126,127,130,127,0
8034,128,125,126,130,128,128,125,126,0
8039,129,126,127,128,128,129,126,127,0
8046,125,128,127,124,126,128,131,128,0
8055,126,127,127,124,128,128,130,128,0
8051,127,128,126,126,127,129,130,128,0
8059,127,128,128,126,128,128,129,129,0
8061,127,128,128,128,128,128,128,128,0
8064,127,128,127,128,128,127,128,127,0
8067,125,127,128,125,127,126,127,128,0
8070,126,127,129,126,130,128,128,128,0
8073,126,128,129,128,129,129,127,128,0
8076,127,128,129,129,127,127,129,127,0
8079,126,128,129,126,127,128,124,127,0
8082,130,127,128,130,130,129,125,127,0
8085,130,128,128,126,129,129,128,129,0
8088,127,128,129,125,128,128,129,129,0
8091,127,128,131,125,127,125,129,128,0
8095,128,126,131,127,129,126,130,127,0
8097,128,128,128,130,128,127,128,128,0
8101,127,128,128,128,128,127,129,128,0
8105,127,128,130,130,125,126,129,127,0
8107,128,126,127,133,131,126,125,126,0
8110,131,127,126,132,126,129,130,128,0
8113,127,128,126,128,129,128,129,128,0
8117,127,127,127,127,128,127,128,127,0
8119,128,126,129,126,128,128,129,127,0
8122,128,128,129,128,128,127,128,127,0
8125,128,128,126,127,128,128,128,127,0
8129,127,128,127,127,126,126,127,127,0
8132,128,126,126,131,128,129,123,125,0
8135,131,128,126,129,126,128,128,127,0
8138,128,129,128,127,128,128,128,127,0
8142,127,128,128,126,128,128,129,127,0
8150,128,126,129,125,125,127,128,128,0
8156,128,126,128,127,127,130,128,127,0
8159,128,128,126,129,127,130,128,128,0
8162,127,127,127,127,129,128,127,127,0
8165,124,126,126,128,126,129,123,126,0
8168,131,127,126,132,130,129,126,128,0
8172,128,128,128,128,132,129,130,127,0
8175,128,126,128,129,131,126,128,128,0
8178,127,126,126,127,130,126,129,130,0
8181,127,128,127,128,131,129,128,127,0
8186,127,129,125,129,130,128,128,127,0
8189,127,129,127,128,128,123,126,127,0
8195,125,126,126,131,130,128,122,125,0
8198,129,127,126,131,128,129,124,128,0
8201,126,129,125,128,129,129,128,128,0
8205,125,128,125,127,130,128,128,127,0
8208,126,127,126,126,129,128,129,128,0
8211,125,128,126,125,128,129,127,128,0
8218,127,128,125,128,127,129,128,128,0
8222,127,128,128,128,127,127,128,128,0
8227,127,126,127,130,129,128,124,127,0
8230,130,126,128,129,126,126,129,129,0
8234,126,128,129,128,126,129,128,130,0
8238,127,129,130,126,129,128,130,127,0
8242,127,127,132,127,130,127,129,128,0
8245,127,128,133,127,129,128,129,129,0
8249,128,128,131,129,125,127,128,128,0
8255,128,129,131,128,125,126,127,128,0
8259,128,127,133,128,127,127,128,129,0
8262,127,128,131,128,127,127,127,128,0
8269,129,128,130,128,127,127,126,128,0
8272,127,128,130,128,125,125,127,128,0
8277,127,128,130,127,126,125,129,128,0
8283,127,128,129,129,123,127,127,129,0
8287,128,128,128,130,126,128,128,127,0
8290,128,128,127,128,127,128,128,129,0
8294,127,124,127,131,126,128,122,127,0
8297,130,126,128,131,128,129,123,126,0
8300,126,127,128,128,128,131,127,129,0
8303,128,128,127,129,127,130,128,129,0
8307,126,127,126,127,128,130,129,129,0
8310,127,127,127,126,128,130,128,129,0
8316,128,127,126,126,128,130,128,129,0
8320,128,128,126,126,127,130,129,128,0
8323,127,128,127,126,128,125,128,128,0
8326,127,127,127,126,128,127,128,129,0
8328,126,128,126,127,129,129,127,128,0
8331,127,128,126,128,127,128,126,127,0
8336,126,127,128,128,127,129,123,127,0
8339,129,127,127,131,129,129,123,126,0
8342,129,127,127,128,129,130,128,129,0
8345,128,129,126,128,129,128,128,128,0
8349,127,128,127,127,128,128,129,128,0
8353,126,128,126,126,129,127,128,128,0
8356,127,128,126,127,129,127,127,127,0
8359,127,128,126,128,128,128,128,127,0
8362,126,128,126,127,126,125,128,128,0
8366,126,127,128,127,126,126,128,128,0
8369,127,128,128,127,126,128,127,128,0
8373,128,129,127,128,127,128,127,128,0
8376,127,128,127,130,126,128,122,126,0
8381,130,126,127,130,129,128,124,127,0
8388,130,127,126,128,124,127,126,129,0
8392,129,128,127,128,126,127,127,130,0
8395,127,128,126,127,127,126,128,129,0
8398,128,127,128,127,128,125,129,129,0
8401,127,128,126,127,128,127,129,127,0
8404,128,128,127,128,127,127,128,129,0
8408,128,128,127,127,128,127,127,127,0
8412,127,126,128,127,126,126,127,127,0
8415,127,128,127,128,129,128,127,127,0
8419,127,128,127,128,130,129,127,127,0
8422,127,128,128,128,127,126,127,128,0
8425,127,127,130,130,126,128,124,125,0
8428,130,127,127,130,127,129,126,126,0
8432,125,128,127,128,130,129,131,128,0
8435,126,128,128,127,129,128,132,128,0
8438,126,128,127,127,128,128,132,127,0
8441,128,128,128,127,129,128,131,128,0
8446,127,128,127,128,128,129,130,128,0
8449,126,128,126,129,125,125,128,128,0
8452,127,127,127,132,128,128,123,126,0
8455,130,126,126,131,128,130,125,126,0
8459,129,125,125,129,126,128,128,129,0
8461,129,129,126,128,126,127,128,129,0
8464,126,128,125,125,125,126,128,129,0
8467,127,128,126,124,127,129,128,130,0
8469,127,128,124,126,125,129,128,128,0
8472,127,129,125,127,125,128,129,128,0
8476,129,127,125,129,126,129,124,127,0
8479,130,126,127,128,127,129,125,128,0
8483,127,128,128,125,128,128,131,130,0
8489,127,128,129,125,126,129,130,130,0
8494,126,128,128,123,123,126,129,130,0
8501,126,128,128,124,128,128,129,129,0
8506,127,127,127,127,127,128,129,130,0
8510,126,128,127,128,127,128,130,129,0
8517,126,127,130,128,125,124,126,126,0
8522,130,127,130,131,129,126,124,125,0
8527,127,126,131,127,129,127,130,128,0
8530,127,127,129,126,128,127,129,129,0
8534,126,125,130,126,127,126,128,128,0
8537,126,126,131,126,129,127,128,128,0
8543,127,128,133,128,127,130,128,129,0
8546,128,128,132,129,128,129,128,127,0
8550,128,128,130,127,127,128,128,127,0
8554,125,127,131,129,128,129,127,126,0
8558,128,128,130,130,128,129,127,125,0
8561,128,128,127,129,127,129,129,125,0
8565,127,127,129,129,128,126,123,123,0
8568,130,126,127,130,127,128,125,123,0
8572,131,127,127,128,128,129,131,126,0
8575,129,128,126,128,126,129,131,127,0
8579,128,128,125,126,127,128,131,128,0
8583,128,128,125,126,126,129,130,127,0
8590,129,128,126,128,127,130,129,127,0
8595,128,128,125,127,127,130,130,127,0
8598,129,128,128,127,128,128,129,127,0
8601,130,126,126,130,129,129,124,124,0
8604,131,126,126,127,130,130,129,126,0
8606,130,128,125,130,129,129,128,127,0
8609,129,128,125,129,129,129,128,127,0
8613,130,128,128,128,129,128,128,126,0
8617,129,128,127,129,128,129,127,126,0
8627,129,128,127,128,127,129,128,127,0
8631,128,128,127,127,124,126,127,127,0
8636,128,128,127,130,129,129,123,125,0
8639,130,127,127,130,124,129,128,127,0
8642,127,129,126,129,130,128,129,128,0
8647,127,129,126,128,128,128,129,127,0
8651,127,127,127,128,129,129,129,128,0
8654,127,128,124,127,129,129,128,127,0
8657,127,129,124,128,129,129,127,128,0
8660,126,128,123,126,129,127,127,127,0
8664,127,127,124,129,129,127,122,126,0
8667,130,127,126,129,129,128,123,127,0
8671,126,129,125,125,130,129,127,129,0
8674,127,129,125,125,128,127,128,129,0
8677,127,130,126,127,128,127,127,128,0
8682,128,127,127,127,127,127,127,128,0
8684,129,128,125,128,127,128,127,129,0
8687,128,128,126,129,125,125,127,129,0
8690,128,129,129,129,128,127,123,127,0
8692,131,126,128,131,129,127,123,126,0
8696,126,130,128,128,131,128,129,130,0
8699,127,128,128,126,130,126,129,127,0
8703,128,128,130,125,127,124,129,130,0
8706,129,128,130,124,128,126,128,130,0
8710,128,127,131,127,126,125,129,128,0
8713,128,127,129,124,128,126,129,128,0
8716,128,127,131,125,125,124,128,128,0
8719,130,126,130,128,129,127,123,126,0
8723,129,128,129,124,131,128,127,130,0
8728,127,127,129,125,132,127,128,127,0
8733,127,129,131,125,129,127,129,127,0
8736,128,127,129,125,130,126,128,128,0
8739,127,127,127,127,129,128,127,128,0
8742,127,128,127,127,130,128,128,128,0
8747,126,126,126,126,129,127,129,128,0
8750,126,127,127,128,130,127,128,127,0
8758,127,127,126,129,129,130,129,126,0
8761,127,127,127,130,130,127,128,127,0
8765,128,127,127,128,129,126,123,124,0
8768,129,125,128,131,129,127,123,125,0
8771,129,126,128,127,131,129,128,130,0
8774,128,127,129,128,129,128,128,128,0
8778,127,127,129,127,128,127,129,129,0
8781,126,125,132,127,128,128,129,129,0
8784,128,128,130,129,125,130,128,130,0
8787,126,128,129,129,127,131,129,130,0
8791,126,127,130,127,123,127,124,128,0
8795,130,126,130,131,129,128,125,128,0
8798,128,127,130,126,129,129,129,132,0
8801,128,129,129,127,126,127,129,131,0
8805,127,129,128,125,126,125,128,130,0
8807,128,128,130,127,125,126,129,129,0
8810,127,128,128,128,126,127,128,129,0
8815,126,128,126,131,126,127,129,127,0
8829,127,128,125,130,127,127,128,127,0
8832,127,127,125,133,127,128,123,124,0
8837,129,127,125,128,128,130,127,128,0
8842,127,128,125,127,126,129,127,128,0
8846,128,128,125,125,126,128,128,127,0
8850,127,125,126,126,126,127,129,127,0
8857,127,127,128,128,126,126,128,126,0
8863,127,127,125,129,125,125,128,126,0
8867,127,128,126,127,126,125,128,127,0
8870,127,127,128,129,127,127,129,127,0
8873,127,126,126,129,127,126,130,126,0
8877,127,128,127,129,127,128,129,126,0
8880,127,128,127,128,124,125,130,126,0
8883,127,125,127,131,125,127,127,124,0
8889,129,126,127,130,126,125,131,126,0
8892,128,127,127,127,126,129,132,126,0
8896,128,129,127,127,127,128,132,126,0
8899,126,127,128,127,128,127,130,127,0
8903,127,128,129,127,128,129,129,127,0
8906,126,128,128,128,128,129,129,127,0
8910,126,128,129,128,127,128,127,126,0
8913,127,127,129,127,126,128,126,124,0
8916,129,127,129,130,128,126,127,126,0
8920,126,129,130,128,128,128,127,126,0
8923,126,128,128,127,128,128,127,127,0
8926,125,127,128,127,128,127,128,126,0
8930,126,127,127,126,128,128,128,127,0
8936,127,127,126,126,126,129,126,127,0
8938,126,128,126,126,126,128,124,128,0
8943,126,127,126,128,126,127,120,126,0
8946,128,126,125,127,127,128,119,126,0
8950,127,127,125,125,128,128,126,128,0
8955,126,128,125,122,127,127,127,128,0
8960,125,125,124,127,125,126,125,127,0
8965,127,128,125,127,127,127,125,127,0
8970,128,127,125,124,129,129,129,127,0
8975,127,129,123,124,127,128,128,128,0
8978,127,128,127,124,127,126,129,127,0
8982,126,128,127,124,126,127,129,127,0
8985,127,128,126,126,127,127,129,128,0
8988,127,129,126,127,127,128,129,128,0
8992,127,128,127,127,126,127,129,126,0
8995,129,126,127,131,127,129,123,126,0
8997,128,127,129,127,126,129,129,129,0
9000,127,128,129,130,126,129,130,128,0
9004,126,128,129,127,124,128,129,128,0
9008,126,126,130,129,124,128,128,127,0
9012,129,128,130,127,125,131,128,127,0
9015,127,128,129,127,125,130,128,128,0
9020,126,127,129,126,126,126,128,127,0
9025,127,126,129,130,127,127,122,126,0
9029,130,127,129,129,125,126,129,127,0
9032,127,127,128,128,127,129,130,128,0
9036,125,129,127,128,126,126,129,128,0
9039,126,126,127,129,121,128,129,129,0
9043,125,128,128,128,128,131,128,129,0
9047,126,129,127,130,128,130,129,129,0
9050,126,128,127,129,124,127,125,127,0
9055,128,127,128,129,128,127,124,127,0
9058,128,128,127,129,126,126,128,129,0
9061,127,128,126,128,128,131,129,129,0
9064,127,128,127,126,125,126,128,130,0
9067,126,127,128,127,128,127,128,130,0
9070,127,128,128,126,127,127,127,129,0
9075,129,129,127,127,129,129,126,128,0
9081,127,128,127,130,129,126,124,125,0
9084,130,127,128,132,130,127,122,126,0
9087,129,128,127,128,129,130,128,130,0
9091,126,129,126,128,130,128,128,129,0
9095,125,129,127,129,129,126,129,127,0
9098,124,127,127,128,128,127,129,128,0
9102,125,129,128,127,128,129,130,127,0
9106,124,130,128,127,127,129,130,128,0
9111,124,129,127,126,129,128,129,127,0
9115,126,127,127,128,128,126,125,127,0
9119,129,127,126,128,129,126,126,128,0
9126,125,128,126,128,131,129,130,129,0
9130,122,128,125,127,128,127,129,128,0
9134,124,128,126,126,128,126,129,130,0
9140,126,127,126,127,130,128,129,128,0
9145,125,128,124,128,128,127,128,127,0
9149,124,128,127,128,128,125,128,126,0
9152,126,126,128,132,128,126,123,125,0
9158,128,126,128,129,129,128,125,128,0
9162,123,128,127,128,130,129,130,128,0
9167,122,127,126,126,129,128,129,128,0
9171,123,128,129,124,126,127,131,129,0
9175,125,125,128,126,128,127,129,128,0
9178,123,128,128,126,128,128,129,128,0
9182,126,128,128,125,129,126,128,130,0
9185,125,127,129,126,127,125,128,129,0
9189,127,128,128,128,128,128,128,128,0
9193,125,128,128,129,129,129,128,127,0
9196,126,128,128,129,127,127,128,127,0
9200,126,127,128,128,127,127,123,126,0
9205,130,127,128,130,128,127,123,126,0
9209,130,128,125,128,129,131,131,128,0
9212,125,129,127,129,128,128,129,128,0
9215,126,126,127,129,127,127,129,128,0
9218,126,128,127,130,128,127,128,127,0
9220,127,129,127,129,126,129,127,127,0
9223,127,128,125,128,125,128,127,127,0
9227,127,117,128,129,119,125,125,126,0
9230,131,114,128,128,125,125,126,126,0
9234,131,114,127,127,128,128,128,128,0
9238,127,119,128,129,128,128,129,127,0
9241,127,120,128,126,128,126,129,127,0
9244,130,120,130,128,128,127,129,128,0
9247,128,124,129,130,128,127,128,128,0
9250,129,125,130,128,127,128,128,127,0
9254,128,126,129,127,125,126,130,127,0
9257,131,124,129,128,125,127,125,125,0
9260,134,128,129,126,125,128,129,128,0
9263,128,129,129,129,126,128,129,128,0
9267,128,129,128,125,126,127,129,127,0
9269,128,128,129,126,127,127,129,127,0
9273,128,128,129,127,127,128,128,127,0
9276,128,129,126,127,127,128,126,128,0
9279,128,130,127,125,127,128,128,127,0
9282,128,129,129,126,129,129,127,128,0
9286,128,129,126,127,129,131,128,128,0
9289,130,130,126,126,129,129,129,127,0
9292,129,129,126,127,127,124,129,127,0
9295,128,126,126,129,130,127,124,126,0
9298,132,129,127,130,131,128,125,128,0
9302,127,130,126,128,129,128,129,128,0
9307,127,129,127,126,129,128,131,128,0
9310,128,127,128,127,129,128,130,127,0
9314,126,129,127,126,129,128,129,128,0
9317,128,130,127,128,130,128,128,128,0
9320,128,131,127,129,128,126,128,127,0
9323,129,128,127,130,129,127,124,126,0
9326,132,129,126,131,128,126,129,128,0
9329,127,130,126,129,128,129,128,128,0
9332,127,129,126,128,128,127,128,127,0
9335,129,127,126,127,126,127,129,127,0
9338,130,129,126,127,128,128,129,127,0
9341,129,130,125,128,129,129,128,128,0
9345,128,130,124,127,130,128,128,126,0
9349,126,128,127,128,129,128,127,127,0
9352,127,128,127,127,132,129,128,127,0
9355,129,130,126,128,130,129,128,127,0
9360,128,129,127,128,129,127,125,126,0
9363,131,128,127,130,130,126,123,126,0
9366,131,128,128,129,130,128,124,126,0
9369,124,130,126,128,130,128,129,127,0
9372,125,130,127,128,129,127,128,127,0
9378,127,129,128,127,129,126,128,127,0
9381,127,127,128,128,127,128,129,127,0
9385,127,129,127,128,127,128,128,127,0
9388,129,129,128,128,128,128,127,127,0
9390,126,128,129,127,123,125,127,127,0
9395,127,128,130,128,129,128,125,126,0
9398,129,127,129,129,130,130,129,128,0
9402,128,129,129,127,130,130,129,128,0
9408,126,128,129,128,125,127,127,127,0
9413,128,126,129,126,128,128,127,127,0
9419,128,128,129,127,129,129,127,127,0
9422,129,128,129,127,129,130,128,128,0
9427,127,127,130,125,126,128,128,125,0
9432,132,128,129,128,130,128,123,127,0
9436,129,125,129,126,130,130,130,128,0
9442,129,128,128,126,128,129,129,128,0
9446,126,128,128,127,127,126,128,128,0
9449,127,128,128,129,128,126,127,127,0
9453,128,128,127,127,130,128,128,127,0
9456,128,129,127,126,128,129,128,128,0
9460,126,127,129,126,127,128,123,125,0
9464,130,127,128,127,129,129,122,125,0
9467,130,127,128,126,129,129,128,127,0
9471,126,126,127,127,129,128,129,127,0
9475,127,128,128,125,127,125,129,126,0
9478,125,126,127,126,128,126,130,128,0
9483,125,128,126,128,127,128,129,128,0
9486,128,128,126,128,127,127,130,127,0
9488,126,128,126,128,128,124,128,127,0
9491,127,127,128,130,127,127,123,126,0
9495,130,127,126,130,125,125,128,128,0
9498,127,127,126,128,128,128,126,128,0
9501,126,129,124,127,129,127,127,127,0
9505,127,127,125,126,128,126,128,129,0
9508,127,128,126,127,127,129,127,129,0
9511,126,130,123,128,127,127,128,128,0
9513,126,129,125,128,125,124,128,128,0
9519,126,126,128,130,128,127,123,126,0
9523,131,128,128,128,125,126,126,129,0
9527,125,129,127,127,128,129,128,128,0
9531,125,129,127,129,129,127,130,128,0
9535,127,128,127,128,126,128,129,128,0
9538,127,129,128,128,127,128,129,128,0
9542,128,129,126,130,128,129,127,127,0
9545,127,129,128,131,127,127,127,126,0
9547,131,128,127,131,129,127,124,125,0
9550,131,127,128,132,126,126,130,127,0
9553,126,129,127,130,127,132,131,126,0
9556,127,128,127,130,127,129,130,126,0
9559,127,126,128,127,126,128,131,128,0
9563,125,126,128,127,127,131,129,128,0
9566,126,129,128,125,128,129,128,129,0
9569,128,129,129,124,127,127,129,129,0
9572,128,126,129,124,126,125,127,127,0
9576,128,127,132,124,128,127,128,128,0
9580,129,129,128,127,127,127,128,129,0
9584,129,129,129,127,127,126,127,128,0
9587,126,128,128,129,130,128,123,126,0
9589,130,127,127,131,130,128,124,127,0
9592,128,127,128,127,130,129,128,128,0
9595,127,129,126,128,130,128,128,129,0
9598,126,129,128,129,130,127,127,128,0
9602,125,128,127,127,130,128,127,128,0
9605,129,128,127,128,129,127,127,129,0
9608,128,128,128,128,129,127,127,129,0
9613,127,127,127,128,126,126,128,128,0
9616,128,127,126,131,127,128,124,127,0
9620,129,127,126,130,124,128,129,129,0
9623,128,128,127,128,127,130,129,128,0
9628,126,127,130,126,126,127,129,126,0
9634,129,126,127,129,128,129,124,127,0
9637,130,128,125,130,130,129,129,128,0
9641,127,128,125,127,127,130,127,128,0
9644,127,126,126,127,128,127,128,128,0
9647,127,128,127,126,128,128,126,126,0
9652,128,128,126,127,128,126,126,128,0
9655,127,127,126,127,128,127,126,128,0
9660,128,127,126,125,125,123,126,127,0
9663,132,128,127,128,128,127,122,127,0
9667,131,127,127,125,128,128,128,128,0
9670,128,128,129,125,129,130,128,129,0
9674,128,128,129,125,130,127,128,127,0
9677,127,126,132,127,128,127,128,128,0
9680,129,128,128,127,130,130,128,128,0
9685,129,128,130,128,128,128,128,128,0
9688,127,127,130,128,128,127,128,128,0
9691,126,126,130,129,128,124,123,125,0
9694,131,128,128,132,128,127,128,128,0
9696,129,129,129,128,128,126,127,128,0
9699,128,128,130,129,127,126,129,127,0
9702,127,128,128,127,126,125,125,126,0
9705,128,127,128,127,125,126,129,127,0
9708,126,129,128,125,127,127,130,128,0
9710,127,128,128,125,128,126,128,128,0
9714,125,127,129,125,127,127,128,127,0
9717,128,127,127,125,128,130,128,128,0
9721,128,127,127,126,129,128,128,128,0
9724,127,128,127,127,127,129,129,128,0
9728,126,127,128,129,124,127,124,127,0
9732,130,127,127,129,127,127,127,128,0
9736,128,128,127,128,128,129,128,128,0
9741,128,128,127,126,128,127,130,128,0
9746,125,127,129,126,128,127,129,128,0
9751,128,128,128,127,129,129,129,129,0
9754,128,128,127,128,127,128,130,129,0
9757,128,128,127,127,126,125,132,128,0
9762,127,126,127,128,126,126,127,126,0
9765,131,127,127,129,129,126,130,127,0
9768,129,129,127,127,128,128,131,128,0
9772,128,129,127,128,128,128,131,128,0
9775,126,127,128,125,126,127,130,127,0
9778,127,128,128,126,127,128,129,128,0
9781,128,128,128,127,127,127,128,128,0
9784,128,129,126,127,125,125,128,128,0
9787,127,127,127,127,127,127,128,128,0
9790,127,128,128,127,127,127,128,128,0
9794,127,128,126,127,127,130,128,129,0
9824,127,128,127,126,125,126,126,128,0
9827,127,126,128,126,127,127,121,127,0
9831,130,126,127,130,129,128,123,126,0
9834,131,126,129,129,128,127,128,128,0
9838,127,129,127,127,127,127,128,128,0
9894,125,127,128,129,128,124,127,127,0
9901,125,127,127,126,128,127,128,128,0
9904,127,128,126,127,128,128,127,128,0
9908,127,129,128,127,127,126,127,128,0
9912,127,127,127,127,126,123,125,127,0
9960,127,126,127,127,128,123,125,127,0
9980,127,128,125,128,129,128,126,128,0
9988,128,127,125,127,126,129,127,128,0
10038,130,126,125,129,128,129,122,125,0
10027,126,126,126,129,128,129,122,126,0
10048,130,126,126,127,127,130,127,128,0
10056,128,128,125,128,126,128,128,128,0
10061,126,126,126,129,127,128,128,128,0
10096,125,126,127,127,127,127,127,128,0
10100,127,127,127,129,130,128,128,129,0
10104,127,127,128,129,128,127,128,128,0
10108,126,127,128,128,126,125,128,127,0
10112,124,126,129,127,127,126,128,128,0
10118,127,127,128,126,127,126,128,129,0
10122,127,128,128,126,129,128,129,129,0
10125,124,127,129,125,126,124,124,126,0
10128,128,127,129,128,129,127,124,126,0
10132,130,127,129,130,128,125,131,128,0
10135,126,128,128,126,129,129,129,129,0
10139,125,128,130,126,128,128,130,127,0
10142,126,125,130,126,127,129,131,127,0
10145,127,128,129,127,131,129,129,128,0
10148,127,128,129,128,129,129,129,127,0
10152,126,127,130,129,129,124,129,128,0
10162,127,126,127,132,129,129,125,127,0
10166,130,127,126,131,127,128,131,130,0
10171,126,128,125,129,128,132,129,129,0
10175,126,129,126,127,131,131,129,128,0
10188,128,127,127,129,129,128,128,128,0
10182,127,126,126,128,127,129,129,128,0
10192,128,128,127,127,126,127,129,129,0
10196,128,129,127,125,125,127,127,129,0
10199,129,126,128,130,128,128,122,127,0
10203,131,128,127,129,125,127,130,129,0
10206,128,129,127,125,127,131,129,130,0
10209,127,129,124,127,126,126,128,129,0
10212,130,126,128,126,126,127,127,128,0
10215,127,128,128,126,127,127,127,129,0
10218,129,129,127,127,128,128,126,128,0
10222,129,129,128,126,127,127,127,127,0
10230,129,128,128,124,123,125,122,125,0
10234,133,127,128,129,128,127,124,126,0
10238,130,127,128,128,128,126,128,127,0
10244,129,129,130,125,129,125,128,128,0
10247,127,126,130,126,128,125,128,127,0
10250,128,127,130,126,129,127,128,127,0
10254,128,129,128,127,129,129,129,127,0
10258,129,127,127,128,128,127,128,127,0
10261,127,126,127,128,126,128,124,125,0
10264,130,126,127,130,129,128,127,128,0
10267,128,128,127,129,130,130,129,127,0
10270,127,128,129,129,130,127,128,127,0
10273,129,126,129,126,130,127,129,127,0
10277,129,128,128,127,130,128,129,128,0
10296,127,128,127,129,129,128,128,128,0
10301,127,129,127,129,129,128,128,128,0
10306,127,126,130,130,127,128,124,126,0
10311,130,127,128,130,128,128,126,127,0
10317,127,128,129,128,131,129,131,128,0
10366,126,128,128,128,127,127,130,129,0
10372,126,129,127,127,127,125,129,128,0
10381,127,126,127,127,127,126,128,128,0
10396,128,127,128,127,127,127,129,128,0
10405,129,128,127,126,128,129,129,128,0
10409,128,127,129,126,124,126,124,125,0
10415,131,126,128,129,128,127,124,126,0
10419,130,125,131,123,126,128,128,128,0
10423,130,126,128,126,128,127,129,128,0
10427,127,127,129,126,128,126,129,128,0
10431,126,127,128,127,128,127,129,128,0
10436,127,127,127,128,127,128,127,128,0
10439,127,129,127,127,128,128,127,128,0
10444,127,126,129,127,123,125,124,127,0
10447,127,129,128,130,126,127,125,127,0
10451,128,129,126,129,130,130,129,130,0
10455,127,130,126,128,128,129,130,130,0
10458,128,128,126,127,127,128,129,129,0
10461,126,130,128,127,126,128,127,128,0
10464,127,130,125,127,129,129,128,129,0
10467,128,129,126,127,128,128,128,128,0
10470,126,129,126,127,127,127,128,129,0
10479,127,128,126,127,127,128,127,128,0
10483,128,128,125,128,127,128,128,127,0
10486,127,128,126,126,126,128,122,126,0
10474,126,128,127,127,126,127,127,128,0
10492,128,127,126,129,129,129,123,126,0
10497,128,127,126,128,125,129,129,128,0
10501,127,128,125,127,128,128,128,128,0
10504,126,129,127,126,126,127,129,128,0
10507,126,128,128,125,127,128,128,127,0
10510,126,129,129,126,130,128,127,127,0
10514,128,129,128,126,128,128,127,127,0
10517,129,129,129,126,128,127,128,128,0
10520,129,127,129,130,129,128,123,126,0
10523,131,127,128,128,123,127,129,128,0
10527,129,129,128,126,128,129,128,128,0
10530,128,128,127,125,127,128,128,128,0
10534,127,128,129,126,128,128,129,127,0
10537,127,127,130,127,129,127,129,128,0
10540,128,128,127,127,127,128,129,127,0
10544,128,129,127,128,128,128,128,128,0
10547,128,127,128,127,126,127,128,128,0
10551,130,127,128,131,127,128,123,126,0
10554,129,127,126,128,128,128,129,128,0
10557,129,129,127,128,128,128,130,128,0
10560,128,128,130,128,127,128,130,128,0
10563,127,128,128,127,128,128,129,127,0
10567,127,128,129,128,127,128,128,127,0
10571,127,128,127,127,126,127,128,127,0
10575,127,127,129,127,126,125,127,127,0
10578,127,125,127,129,127,128,122,126,0
10581,130,127,126,128,127,127,128,127,0
10584,127,129,129,130,127,128,129,128,0
10588,126,125,127,129,125,127,129,128,0
10592,127,127,127,130,124,129,129,128,0
10596,126,128,126,130,129,129,129,128,0
10602,126,128,126,128,129,128,128,128,0
10605,127,128,127,129,127,127,122,126,0
10608,130,127,127,131,130,127,123,127,0
10611,128,129,129,128,129,128,127,127,0
10614,128,128,126,128,128,128,127,128,0
10635,127,129,126,127,127,126,128,127,0
10638,127,126,128,126,128,126,128,127,0
10644,127,128,127,126,129,129,129,126,0
10647,127,128,126,126,130,129,128,127,0
10651,126,128,126,125,129,126,128,126,0
10682,126,128,127,126,130,128,128,127,0
10688,127,128,126,125,130,127,128,127,0
10692,127,128,126,126,126,127,128,127,0
10697,127,128,128,126,123,127,122,125,0
10702,130,126,126,128,128,130,124,126,0
10707,130,127,127,127,126,129,129,127,0
10710,127,126,128,128,126,129,129,128,0
10714,129,127,130,125,122,127,127,128,0
10718,126,128,128,126,122,126,130,127,0
10722,128,128,128,126,124,129,129,127,0
10726,127,129,127,127,126,129,129,127,0
10729,126,128,127,127,122,127,129,128,0
10733,127,127,130,127,124,127,130,128,0
10736,126,127,128,128,125,127,127,128,0
10740,128,127,129,129,127,128,128,128,0
10744,128,126,129,130,126,127,123,126,0
10747,129,126,127,131,126,130,123,126,0
10750,129,126,128,129,124,131,130,129,0
10754,127,127,129,128,129,131,130,128,0
10758,126,128,129,128,130,127,129,128,0
10764,126,126,128,127,130,128,131,127,0
10768,126,128,128,127,129,130,128,128,0
10770,127,129,128,127,129,129,128,127,0
10774,126,129,129,128,130,127,129,127,0
10778,126,125,130,128,128,124,128,127,0
10781,126,129,127,125,130,127,128,128,0
10785,126,129,127,127,129,128,128,128,0
10788,127,128,127,127,128,127,125,126,0
10792,129,127,127,128,129,128,122,127,0
10797,131,127,126,127,128,130,129,129,0
10799,126,130,128,127,127,132,128,129,0
10802,126,128,128,126,125,129,128,128,0
10805,125,126,127,126,126,129,128,128,0
10807,127,129,127,128,126,128,127,128,0
10810,128,128,129,129,124,128,127,128,0
10813,127,128,128,126,125,125,127,128,0
10817,126,127,129,124,127,126,127,128,0
10820,126,128,127,126,125,127,126,128,0
10824,127,128,126,127,128,129,127,128,0
10827,127,129,126,128,124,125,127,128,0
10832,128,127,128,130,128,128,123,126,0
10836,130,127,127,132,129,128,125,127,0
10839,129,128,127,127,126,127,129,128,0
10843,127,128,126,128,127,127,128,128,0
10846,127,127,128,126,125,124,127,127,0
10849,127,129,130,126,129,127,128,128,0
10853,127,129,127,127,128,127,128,128,0
10856,127,130,126,129,127,126,128,127,0
10861,127,126,128,129,126,127,124,126,0
10867,129,127,127,130,129,128,127,125,0
10873,128,129,129,125,128,128,130,128,0
10875,127,129,127,125,127,129,130,129,0
10878,126,127,127,124,125,125,129,128,0
10881,126,128,128,127,127,128,129,128,0
10885,128,128,128,125,128,129,128,128,0
10888,127,128,127,127,127,129,128,128,0
10892,127,127,130,126,127,125,128,128,0
10895,126,128,129,126,129,129,128,128,0
10903,127,128,128,127,128,127,128,128,0
10906,127,127,127,130,130,129,123,126,0
10900,128,128,128,127,130,129,127,128,0
10909,130,127,127,129,131,129,125,126,0
10913,130,127,128,128,130,128,130,128,0
10916,127,129,128,129,131,128,130,128,0
10919,129,128,127,129,126,127,131,128,0
10922,127,127,129,129,130,127,129,128,0
10925,128,128,127,129,130,127,128,128,0
10928,128,127,126,128,128,127,128,128,0
10931,126,128,127,127,128,124,127,127,0
10934,126,126,127,130,128,127,123,126,0
10937,131,127,128,125,130,128,128,129,0
10940,128,128,126,125,128,128,128,129,0
10943,130,127,128,126,126,126,129,129,0
10946,129,128,129,128,128,125,127,128,0
10952,128,127,131,127,127,126,128,128,0
10956,128,128,131,129,127,126,128,128,0
10959,127,127,130,128,126,124,128,128,0
10986,126,127,130,127,126,127,128,127,0
10992,125,128,129,126,127,127,127,128,0
11018,127,128,129,126,129,126,127,128,0
11043,127,127,129,125,126,128,123,126,0
11047,131,126,127,128,130,127,123,126,0
11053,130,127,127,129,125,129,130,128,0
11057,130,128,128,128,128,129,129,128,0
11061,127,129,128,127,129,127,129,128,0
11064,126,128,127,128,128,126,128,128,0
11067,126,128,128,128,130,126,128,128,0
11075,127,129,128,129,129,128,128,128,0
11079,127,128,128,128,126,125,127,127,0
11083,128,126,128,131,128,127,124,126,0
11087,131,127,127,131,125,125,129,129,0
11092,128,128,128,128,130,130,129,129,0
11096,126,128,127,127,128,127,129,127,0
11099,126,127,126,124,127,126,129,129,0
11104,126,128,128,124,129,129,130,128,0
11107,128,129,125,127,128,128,129,128,0
11111,127,129,128,125,126,129,128,129,0
11115,127,127,128,126,125,127,129,128,0
11122,130,127,129,127,129,128,129,128,0
11125,127,128,125,126,129,129,128,128,0
11131,127,128,126,126,129,129,129,127,0
11135,128,125,126,130,131,128,124,127,0
11139,130,126,125,129,130,128,124,127,0
11142,127,128,125,126,127,127,129,128,0
11145,128,128,127,127,128,128,129,129,0
11149,125,127,126,128,130,126,128,128,0
11152,127,127,127,129,132,128,128,128,0
11155,127,128,127,129,130,129,128,129,0
11161,126,128,126,130,132,129,127,128,0
11165,127,127,127,131,132,128,122,126,0
11168,129,126,126,133,134,129,123,126,0
11171,128,127,127,129,134,129,129,128,0
11174,127,128,128,129,133,126,129,127,0
11177,128,128,128,128,131,126,129,127,0
11180,128,128,128,127,132,127,129,127,0
11184,127,128,127,128,132,128,128,127,0
11188,127,129,126,128,131,126,129,128,0
11192,126,128,129,127,131,125,130,127,0
11195,126,127,129,124,130,127,131,128,0
11199,127,128,127,125,128,127,130,127,0
11202,127,128,127,126,128,126,130,128,0
11205,126,126,127,124,123,127,125,126,0
11208,130,126,126,129,130,128,124,126,0
11212,131,127,126,125,130,127,128,126,0
11215,130,127,127,127,130,126,127,127,0
11218,129,128,127,128,130,126,127,127,0
11222,127,127,127,128,132,123,128,127,0
11225,127,128,126,129,130,127,127,128,0
11228,128,128,126,129,130,128,128,128,0
11232,129,128,128,128,128,126,124,126,0
11235,130,126,127,130,130,128,124,127,0
11238,130,127,128,128,130,128,130,129,0
11241,126,129,127,127,127,126,129,129,0
11244,126,128,128,127,127,125,129,130,0
11248,125,128,128,127,126,126,129,132,0
11252,126,128,127,127,127,127,127,130,0
11256,126,128,127,127,125,127,127,130,0
11262,125,127,128,127,126,128,127,131,0
11268,127,127,127,128,127,127,127,129,0
11271,128,127,130,129,128,127,126,129,0
11274,128,128,126,128,126,128,126,129,0
11277,126,127,129,128,126,129,129,128,0
11280,127,125,127,131,128,129,123,126,0
11284,129,126,129,131,126,130,124,128,0
11290,126,128,130,128,128,130,128,130,0
11296,127,128,128,128,126,126,128,130,0
11299,126,125,128,127,125,127,128,131,0
11302,127,126,130,128,125,128,127,128,0
11306,127,128,127,127,125,129,128,129,0
11313,127,128,126,127,125,129,127,126,0
11318,127,127,126,131,125,130,124,126,0
11322,129,128,126,129,122,127,129,127,0
11326,130,127,129,127,127,133,131,127,0
11331,127,128,126,124,128,131,129,127,0
11334,127,128,130,126,126,129,129,126,0
11338,126,129,127,126,127,129,129,126,0
11341,127,128,127,127,126,128,130,126,0
11345,127,128,127,126,125,128,129,128,0
11348,126,126,130,125,123,126,129,126,0
11352,126,127,131,127,126,128,127,126,0
11355,128,128,128,126,126,127,129,127,0
11357,128,128,128,129,126,125,127,125,0
11360,130,127,127,131,126,127,123,124,0
11364,131,127,128,129,127,127,127,126,0
11367,128,128,128,127,127,129,127,128,0
11372,130,129,127,125,126,129,129,127,0
11376,126,128,129,124,125,128,128,126,0
11382,126,126,127,127,128,129,128,126,0
11385,127,128,126,130,126,128,128,126,0
11388,127,129,127,128,126,128,128,127,0
11391,128,127,128,128,123,127,125,126,0
11395,127,127,126,130,126,128,124,127,0
11398,128,126,126,125,127,129,128,127,0
11402,130,128,129,126,127,125,128,126,0
11405,127,128,127,125,124,125,128,127,0
11408,126,126,126,128,130,128,128,128,0
11412,127,128,127,128,127,129,128,128,0
11415,127,128,127,129,126,128,128,128,0
11418,126,128,126,128,124,127,122,126,0
11421,130,127,128,131,129,127,122,126,0
11425,127,127,127,129,131,128,128,129,0
11429,127,128,128,127,127,127,127,128,0
11432,126,126,127,127,129,125,128,128,0
11436,129,128,130,125,127,125,129,128,0
11439,128,128,129,125,126,128,128,128,0
11442,127,129,129,128,124,129,128,128,0
11446,128,128,128,127,123,127,128,128,0
11451,127,128,131,126,127,126,128,128,0
11454,127,128,127,126,127,129,129,129,0
11457,127,128,129,129,127,128,128,128,0
11460,126,127,129,128,127,128,128,127,0
11463,131,127,127,131,128,128,123,127,0
11466,130,127,127,130,126,126,128,130,0
11471,128,129,128,127,131,129,130,128,0
11475,127,129,126,127,128,126,129,127,0
11481,128,127,127,126,127,127,128,128,0
11484,126,128,129,127,128,126,128,127,0
11488,127,129,126,129,127,126,128,128,0
11491,126,128,126,129,122,125,127,127,0
11496,126,127,127,128,127,125,128,127,0
11499,126,128,126,128,125,126,128,128,0
11505,128,129,126,128,127,128,129,127,0
11510,127,127,125,128,126,125,128,126,0
11514,130,126,126,129,129,126,123,125,0
11518,130,126,126,131,130,129,126,127,0
11521,127,129,128,127,132,128,129,128,0
11525,127,128,129,125,128,126,129,128,0
11528,128,126,129,125,128,126,129,128,0
11531,129,126,129,126,129,129,128,127,0
11534,127,128,126,128,127,128,129,128,0
11538,127,128,127,126,127,127,128,128,0
11541,129,126,128,129,127,127,124,126,0
11546,130,127,126,131,128,128,128,127,0
11549,131,127,128,127,127,128,129,127,0
11552,126,129,129,127,126,128,128,127,0
11555,128,127,127,126,126,126,128,126,0
11559,129,128,129,126,126,127,128,127,0
11563,127,127,127,128,128,129,129,127,0
11568,126,128,127,126,128,128,128,127,0
11571,126,127,128,129,126,127,126,126,0
11578,128,128,127,129,127,128,127,128,0
11582,127,128,127,128,129,131,128,126,0
11586,127,129,127,128,128,129,129,126,0
11589,126,126,127,131,129,128,126,128,0
11595,128,127,127,129,129,129,128,126,0
11601,130,128,127,128,130,130,130,128,0
11604,127,127,130,131,130,128,130,128,0
11608,129,127,130,127,128,127,129,127,0
11612,128,128,127,127,127,129,129,127,0
11616,128,127,127,127,126,127,129,128,0
11620,129,129,127,126,126,127,128,128,0
11624,130,128,128,126,127,128,124,127,0
11627,128,127,125,129,129,129,125,127,0
11631,126,128,127,127,129,129,128,129,0
11634,128,128,126,127,126,128,127,129,0
11638,127,128,128,127,128,127,127,129,0
11643,127,125,128,127,129,129,128,128,0
11646,127,128,127,126,126,129,129,128,0
11650,127,128,125,127,126,128,128,128,0
11653,127,127,127,127,124,126,126,128,0
11657,127,127,127,126,125,126,126,127,0
11660,128,128,126,126,125,128,126,128,0
11664,127,128,126,127,126,128,127,128,0
11668,128,127,127,126,124,123,124,126,0
11672,132,126,128,128,128,127,124,126,0
11675,133,127,127,127,124,129,128,126,0
11680,132,128,128,125,127,129,128,126,0
11683,133,128,128,127,128,128,130,127,0
11687,132,126,129,126,125,127,128,127,0
11690,131,128,126,127,126,128,127,128,0
11694,130,128,126,127,127,128,128,128,0
11698,129,128,128,126,127,124,128,127,0
11701,132,127,129,127,123,127,124,126,0
11706,131,127,128,129,128,129,126,129,0
11710,128,128,127,127,127,130,129,128,0
11714,128,128,128,126,126,129,129,128,0
11716,129,128,129,126,125,127,128,128,0
11719,128,128,128,129,127,129,128,128,0
11722,126,128,127,129,128,127,127,128,0
11725,126,128,127,129,128,126,127,127,0
11729,128,126,129,129,129,123,127,126,0
11732,127,127,127,129,129,128,127,127,0
11735,127,128,128,129,128,127,126,127,0
11738,128,127,129,128,123,128,122,126,0
11741,129,127,127,130,128,128,121,126,0
11744,130,127,126,128,124,132,128,129,0
11748,127,128,127,127,129,129,127,128,0
11751,128,128,128,124,129,127,128,131,0
11755,127,127,130,123,128,125,129,137,0
11758,129,127,128,126,126,127,129,138,0
11761,128,128,126,129,127,126,129,139,0
11764,127,127,127,128,126,122,128,138,0
11767,130,126,127,129,129,128,125,135,0
11770,129,127,126,130,127,126,132,136,0
11775,126,128,126,127,127,129,130,135,0
11778,127,128,126,126,126,128,130,133,0
11782,126,127,129,128,125,126,129,131,0
11785,128,128,129,127,129,129,129,131,0
11788,126,128,127,127,129,129,129,130,0
11791,125,128,128,128,126,129,128,129,0
11796,125,127,129,126,124,129,127,128,0
11800,128,126,128,126,127,129,128,128,0
11802,125,128,127,129,128,128,128,126,0
11805,125,128,128,129,125,124,128,125,0
11809,125,127,127,131,128,127,123,123,0
11814,129,127,128,133,129,128,125,121,0
11819,128,127,128,128,128,126,128,126,0
11822,127,129,128,127,128,126,129,125,0
11825,129,128,128,128,124,123,128,124,0
11829,127,127,128,128,128,126,129,124,0
11833,127,128,128,128,129,127,128,125,0
11836,126,127,127,127,127,126,130,125,0
11839,126,127,130,127,127,120,128,125,0
11841,125,127,129,125,127,126,128,125,0
11844,127,128,127,128,128,127,128,124,0
11847,127,128,127,127,127,125,127,124,0
11849,127,127,125,129,132,127,122,122,0
11852,128,127,127,129,129,126,124,123,0
11855,128,128,127,128,128,125,129,125,0
11859,127,129,126,128,126,124,130,125,0
11862,128,128,127,128,125,125,130,125,0
11866,127,127,129,126,126,124,130,126,0
11870,126,128,128,128,126,127,129,126,0
11875,126,128,127,127,127,130,129,126,0
11879,125,128,128,125,125,125,128,126,0
11882,126,127,127,130,129,128,122,124,0
11886,129,128,127,126,128,126,129,126,0
11889,126,127,130,125,128,126,127,127,0
11892,127,126,129,127,129,125,127,126,0
11896,127,128,129,126,129,126,128,128,0
11899,126,127,127,127,126,128,126,128,0
11904,127,129,127,128,128,130,129,127,0
11908,126,128,127,128,127,125,127,127,0
11912,127,127,128,127,126,123,127,128,0
11916,126,127,127,128,127,127,127,128,0
11922,126,129,126,129,128,130,128,128,0
11928,126,127,127,126,124,128,123,125,0
11932,129,127,127,129,127,130,123,124,0
11935,130,127,126,129,128,128,127,126,0
11939,129,127,127,125,128,130,131,128,0
11943,126,129,126,126,121,126,128,125,0
11946,127,127,129,123,125,127,124,126,0
11950,126,128,127,127,124,124,129,127,0
11954,128,127,128,126,129,126,129,128,0
11957,127,129,129,125,127,124,130,128,0
11960,127,128,130,125,128,125,131,127,0
11963,126,128,127,127,127,127,128,128,0
11966,126,128,128,127,127,129,128,128,0
11969,127,128,128,127,125,125,128,128,0
11972,127,125,128,128,126,127,127,128,0
11976,127,126,127,131,129,130,125,128,0
11979,128,128,127,128,131,131,129,129,0
11982,126,127,127,125,131,128,129,128,0
11986,126,128,128,127,130,125,130,128,0
11989,128,128,129,125,130,129,130,128,0
11993,127,128,127,125,129,129,129,128,0
11995,128,128,127,126,126,124,129,128,0
11999,126,127,126,130,131,129,124,125,0
12002,130,128,125,130,130,131,123,126,0
12007,126,128,127,127,130,129,128,127,0
12009,127,129,127,127,129,128,127,128,0
12012,126,128,128,126,128,127,129,126,0
12016,127,128,130,127,127,129,128,128,0
12020,127,128,127,126,128,129,128,128,0
12025,126,127,127,125,127,126,128,127,0
12029,126,125,128,126,126,128,123,126,0
12039,128,128,128,121,128,128,130,126,0
12036,129,127,127,125,128,130,124,126,0
12044,130,128,128,120,125,127,129,125,0
12047,128,127,129,123,128,127,132,128,0
12050,128,126,130,120,129,129,130,126,0
12055,127,127,127,121,131,129,128,128,0
12058,127,128,126,122,128,128,130,128,0
12062,127,127,129,123,125,123,129,127,0
12066,130,127,127,129,129,127,125,125,0
12070,130,128,126,126,129,127,132,126,0
12073,127,129,127,124,127,128,130,124,0
12076,125,128,127,125,128,126,131,120,0
12080,129,126,131,124,125,127,130,121,0
12084,128,127,128,126,128,130,129,121,0
12087,128,128,127,127,128,128,129,121,0
12090,127,129,129,127,126,126,124,121,0
12093,128,127,126,133,131,129,122,122,0
12096,129,127,128,130,130,129,129,124,0
12099,126,127,127,127,127,129,128,124,0
12104,127,126,130,128,125,127,126,123,0
12108,129,128,129,129,123,127,129,125,0
12111,128,129,128,129,128,130,129,127,0
12116,126,128,127,129,128,128,128,127,0
12124,127,129,127,128,126,127,129,128,0
12128,127,126,127,128,129,127,129,127,0
12132,128,128,127,128,130,128,129,129,0
12136,127,129,126,128,129,129,129,130,0
12141,127,128,127,128,127,121,124,127,0
12146,128,127,125,131,131,129,125,128,0
12152,130,128,126,130,123,128,129,128,0
12159,127,128,126,126,127,128,131,132,0
12163,129,128,127,124,128,128,129,129,0
12170,127,126,130,124,126,127,130,130,0
12174,128,126,127,124,129,129,128,131,0
12180,128,128,127,126,127,128,128,131,0
12183,127,128,129,124,126,127,128,131,0
12187,128,125,131,127,127,125,126,130,0
12190,129,128,129,128,130,128,130,130,0
12193,128,128,128,129,128,128,129,135,0
12196,127,128,128,128,125,126,130,138,0
12200,126,125,127,130,128,130,123,139,0
12203,130,127,127,132,128,130,122,137,0
12208,126,129,129,131,128,129,128,138,0
12211,127,128,127,129,125,126,127,135,0
12214,129,128,129,131,126,127,129,136,0
12216,128,126,127,132,128,128,129,132,0
12219,128,128,126,129,127,128,127,133,0
12225,128,129,125,132,125,126,125,132,0
12228,128,127,127,129,126,126,126,129,0
12232,128,126,126,133,131,131,121,126,0
12235,130,127,125,129,129,129,127,128,0
12238,128,129,127,132,128,127,127,129,0
12241,127,128,126,131,128,127,130,127,0
12245,127,129,129,131,127,127,128,125,0
12248,125,128,125,131,127,128,129,126,0
12252,125,128,126,132,125,126,127,128,0
12255,126,128,128,133,127,129,122,124,0
12260,128,128,126,135,131,129,123,122,0
12263,127,127,127,132,129,129,129,127,0
12267,128,129,126,131,130,128,130,125,0
12273,127,127,128,130,129,126,129,124,0
12278,127,127,127,131,127,127,128,126,0
12281,127,128,127,133,128,128,128,126,0
12284,129,129,128,130,127,126,128,125,0
12288,127,128,129,128,127,124,128,124,0
12292,129,127,127,130,131,130,123,123,0
12295,129,128,127,126,130,130,127,126,0
12299,129,129,128,127,128,128,127,127,0
12304,128,126,130,124,124,122,129,126,0
12307,127,128,128,126,128,124,129,127,0
12310,126,128,127,121,127,129,128,128,0
12313,129,129,127,123,128,130,129,127,0
12316,128,128,128,123,124,130,125,124,0
12320,129,128,125,127,131,131,124,122,0
12323,129,127,126,127,129,132,128,123,0
12326,129,129,127,126,129,130,128,123,0
12329,128,128,126,127,128,125,126,123,0
12334,127,127,126,129,129,127,130,123,0
12337,129,129,126,129,130,129,129,124,0
12340,129,130,125,129,131,132,127,125,0
12345,128,129,126,132,131,131,122,125,0
12348,129,128,125,132,131,132,124,125,0
12352,131,129,125,130,124,129,127,126,0
12355,127,129,127,128,128,129,129,126,0
12358,127,128,126,126,126,128,128,128,0
12362,126,127,128,126,125,127,128,125,0
12365,127,128,128,127,125,131,130,126,0
12368,128,129,127,128,127,131,130,126,0
12372,127,128,128,128,125,126,130,125,0
12375,125,127,129,127,125,125,128,126,0
12382,126,128,129,127,123,128,129,126,0
12387,126,127,127,127,127,129,128,127,0
12392,126,127,128,128,122,126,125,125,0
12395,127,128,129,125,124,126,123,129,0
12398,126,127,128,127,126,129,120,129,0
12401,126,128,126,125,130,128,123,128,0
12404,129,129,130,126,123,127,125,129,0
12407,128,127,129,126,127,121,124,129,0
12409,128,128,129,126,131,129,124,129,0
12412,126,128,129,128,127,129,126,130,0
12416,127,126,129,128,121,127,127,128,0
12420,127,127,132,127,124,125,127,127,0
12424,125,127,131,128,127,129,127,129,0
12428,126,127,129,128,130,130,127,130,0
12432,126,127,130,128,127,128,124,129,0
12441,128,124,128,129,129,129,121,127,0
12444,130,127,130,128,130,129,123,127,0
12449,127,126,132,128,129,129,130,130,0
12452,126,127,130,129,128,129,130,128,0
12456,126,125,132,126,126,125,130,126,0
12460,128,128,132,129,122,128,128,128,0
12463,129,127,128,128,126,129,130,129,0
12466,125,128,128,130,126,128,129,128,0
12470,125,127,129,129,125,128,129,126,0
12473,128,128,128,128,130,130,129,129,0
12476,127,128,127,128,126,129,129,129,0
12479,127,129,126,128,130,128,129,128,0
12483,127,127,129,126,127,125,127,128,0
12486,130,128,125,130,129,129,123,127,0
12489,128,127,128,129,131,130,128,127,0
12492,127,129,127,128,125,128,127,126,0
12497,129,127,130,128,124,128,128,126,0
12502,129,128,130,129,128,129,129,129,0
12506,126,129,125,129,128,131,128,129,0
12509,127,129,126,128,125,132,128,129,0
12512,126,127,127,128,127,132,126,127,0
12516,128,127,126,128,130,132,126,127,0
12519,128,127,127,128,129,128,129,128,0
12523,128,128,129,130,130,131,130,128,0
12528,126,126,128,126,129,132,130,128,0
12532,126,126,129,127,128,131,130,128,0
12535,127,128,128,128,126,132,130,129,0
12538,126,128,127,129,129,130,130,128,0
12541,126,127,128,127,125,125,129,129,0
12545,127,126,129,126,124,126,126,128,0
12548,128,127,129,127,129,126,127,129,0
12552,126,127,126,127,126,128,128,129,0
12555,127,126,128,126,125,125,128,127,0
12559,128,128,125,129,129,128,125,126,0
12562,128,126,125,129,125,123,129,127,0
12565,128,127,126,128,127,127,130,127,0
12568,127,127,126,127,124,125,129,127,0
12572,126,127,128,127,127,129,130,127,0
12575,127,127,126,127,127,128,127,127,0
12578,128,128,125,126,128,127,126,127,0
12581,128,127,127,126,125,123,124,127,0
12585,128,127,127,127,127,126,125,126,0
12589,128,128,126,126,123,128,125,128,0
12592,126,128,127,127,127,126,127,127,0
12595,127,128,127,127,122,121,127,127,0
12599,127,126,127,129,129,125,124,126,0
12601,129,127,127,129,129,128,125,126,0
12606,128,128,127,126,127,129,131,129,0
12611,127,129,128,129,128,128,129,128,0
12615,129,128,130,130,127,126,128,128,0
12618,128,128,127,128,129,129,128,129,0
12621,128,128,127,129,127,129,128,128,0
12625,127,129,127,128,126,125,126,126,0
12628,128,127,126,131,129,127,123,127,0
12631,129,127,127,130,128,128,124,126,0
12637,127,129,126,127,128,127,128,130,0
12640,127,128,128,127,127,128,129,129,0
12643,126,128,127,127,126,124,127,128,0
12647,129,126,128,128,112,125,128,128,0
12651,126,127,127,129,106,126,129,128,0
12654,126,128,126,127,110,124,129,126,0
12657,125,127,127,127,109,124,125,125,0
12660,127,127,126,128,115,125,127,126,0
12663,127,129,126,126,117,128,129,127,0
12667,126,129,125,126,120,125,129,126,0
12670,126,127,127,126,121,125,129,126,0
12673,126,127,125,126,125,126,128,128,0
12676,128,128,126,127,123,125,127,128,0
12678,128,129,126,127,126,127,128,128,0
12681,132,127,126,127,126,125,127,126,0
12685,134,126,125,129,131,129,124,127,0
12688,141,128,125,130,128,128,131,129,0
12692,143,127,126,128,130,126,129,127,0
12695,148,128,128,124,128,125,128,128,0
12699,150,128,129,126,130,126,129,128,0
12702,147,128,126,128,133,127,128,128,0
12705,145,128,125,125,133,126,129,129,0
12708,142,127,129,128,134,127,125,126,0
12713,142,128,126,129,136,128,125,127,0
12717,138,128,128,128,134,126,130,127,0
12725,138,128,127,127,134,126,129,128,0
12729,131,127,127,126,134,125,130,127,0
12732,132,128,130,125,133,126,129,128,0
12736,131,128,128,128,131,128,128,129,0
12740,126,128,125,126,133,127,126,128,0
12743,126,128,127,128,128,125,128,125,0
12746,127,127,126,129,134,129,123,127,0
12750,127,128,126,127,132,129,130,129,0
12754,123,128,125,127,132,128,130,128,0
12758,122,127,127,127,131,127,130,127,0
12760,124,127,128,128,132,126,128,128,0
12764,124,129,126,126,130,127,130,128,0
12767,122,128,126,127,127,125,128,127,0
12771,122,126,127,128,127,121,125,127,0
12775,124,127,125,129,132,128,125,127,0
12778,124,128,127,129,130,121,133,126,0
12780,119,129,127,127,132,125,132,127,0
12784,121,127,127,125,128,120,130,125,0
12787,121,128,128,127,129,126,128,125,0
12790,121,126,130,128,131,128,127,127,0
12797,120,128,129,128,128,127,126,127,0
12793,121,128,126,128,129,128,126,127,0
